time,emg_right_hand,emg_left_hand
0.0,3.825,9.65
1.0,7.909146341463414,8.728861788617886
2.0,7.457661357225817,8.897403351584536
3.0,7.226273712737127,9.434661246612466
4.0,25.372514575642036,10.163173556053177
5.0,20.61826948294297,9.054973874800783
6.0,24.726129233997057,8.888226512538079
7.0,15.418748180746606,9.914543363795921
8.0,11.863592740854738,9.077611871474971
9.0,10.409463864223895,8.382301150200442
10.0,8.34123861975947,8.165973549136412
11.0,8.27421228129332,9.01781499381814
12.0,6.190663519538422,9.570229665430293
13.0,6.8820950882319885,9.75120827245139
14.0,6.364242628601401,9.849874489528307
15.0,5.077872691169308,10.096455734142594
16.0,7.250533887827357,9.669963658161928
17.0,7.246431381364505,8.045052639466487
18.0,6.660428608894383,7.828537709340226
19.0,7.690157731070398,8.639241691956089
20.0,6.703064703458095,9.567063804278597
21.0,7.586939417781274,9.163178599527932
22.0,7.341463414634146,9.410857592446892
23.0,19.78599527930763,9.629504327301337
24.0,18.760188827694726,8.197600314712824
25.0,14.299055861526357,8.373387096774193
26.0,18.831785995279308,8.806451612903224
27.0,17.249803304484658,7.242564909520062
28.0,12.637490165224232,7.139378442171518
29.0,7.624390243902439,8.091463414634145
30.0,7.558064516129031,8.312844217151849
31.0,14.965932336742721,8.212195121951218
32.0,13.17006294256491,8.489968528717544
33.0,10.70186860739575,8.194630212431157
34.0,20.004720692368213,8.018646734854444
35.0,18.931549960660895,8.290204563335955
36.0,12.066239556404781,7.982987711213518
37.0,8.750861713686263,7.412864823348694
38.0,6.646772320257765,6.726544528118092
39.0,5.831647371773257,6.0749166385673075
40.0,13.031087257877186,7.292769098197894
41.0,10.03589693154996,7.638473642800944
42.0,8.725402973632713,8.776598277149024
43.0,7.157744759829731,8.406395125985998
44.0,15.28336546747247,8.132921065297147
45.0,11.256946305726792,8.59950537922607
46.0,16.62463290708767,7.943781107431776
47.0,11.432332996141021,8.290914540481811
48.0,8.761957214042186,9.255528080626428
49.0,7.8574763028736285,8.78605897118879
50.0,9.057219662058372,7.924500768049155
51.0,12.124803304484658,8.376219512195123
52.0,9.347501966955154,8.454169944925257
53.0,6.8467348544453195,7.611762391817466
54.0,6.425786782061369,7.775236034618411
55.0,7.226967891798734,8.540747817616424
56.0,6.084373009628713,8.648029298265332
57.0,6.381525607882807,9.347618110973736
58.0,6.0617305458768875,10.227438087744932
59.0,5.436510434228766,11.295170656775692
60.0,4.47155782848151,11.382454760031472
61.0,5.6126475216365055,11.227419354838709
62.0,6.466404405979543,10.510483870967743
63.0,6.5527537372147915,10.34022423288749
64.0,6.720731707317073,10.779386309992132
65.0,9.236978756884342,9.902596380802517
66.0,12.755468135326513,9.728717545239967
67.0,10.569669551534226,9.803068450039337
68.0,8.07837941628264,11.287019969278033
69.0,6.572696789179872,11.076535161664982
70.0,7.821556891836199,8.979219587126748
71.0,7.054275137398662,7.855035765440958
72.0,7.8182666009573945,7.523082398849511
73.0,7.289471242106961,8.627823841513848
74.0,7.225380782343803,10.180945752385561
75.0,7.078071980471666,10.733195142125119
76.0,6.139280094413847,9.738099921321794
77.0,6.5055271439811175,10.467840283241543
78.0,10.198059270915289,10.814315686935672
79.0,18.74799370574351,11.178391592671687
80.0,13.857099771458545,10.681246487580083
81.0,9.52532407927766,11.822133865347869
82.0,6.754194297703345,10.455018545577161
83.0,4.944235884755161,10.498995916226443
84.0,5.025487992207111,9.607699224457683
85.0,5.8142800944138475,10.781038552321007
86.0,7.581805664830841,11.578560188827694
87.0,6.318410700236035,8.524468922108575
88.0,7.322698662470496,7.898347757671125
89.0,7.5964398111723055,8.779622344610543
90.0,6.077655389457121,9.901101494885916
91.0,6.283674272226594,9.421675845790716
92.0,7.718863099921322,9.317525570416993
93.0,6.597757671125098,10.141699449252556
94.0,6.360090479937057,10.128363493312353
95.0,5.634480723839497,9.453697875688434
96.0,6.427321007081039,9.27765538945712
97.0,5.480999213217938,10.208182533438237
98.0,5.528225806451612,8.8
99.0,7.964280094413846,8.844492525570416
100.0,9.519083211569441,7.781808474766775
101.0,11.525133003634185,8.89313157993331
102.0,10.2693820014237,8.459911580682625
103.0,7.031868420066689,8.715439661309055
104.0,5.866445618373235,8.278254842456258
105.0,5.364175190138998,7.655486868232738
106.0,4.725098347757671,7.2926435877262
107.0,5.3916601101494885,7.103048780487805
108.0,4.9626081825334385,8.707336742722266
109.0,5.060739575137687,10.020200629425648
110.0,5.261821400472069,10.832277734067663
111.0,5.153894571203777,10.167348544453187
112.0,5.6261998426435875,10.765106215578285
113.0,5.501612903225807,10.19758064516129
114.0,5.827458693941779,8.05228166797797
115.0,6.325432730133754,8.0955743509048
116.0,9.120377655389456,8.811900078678207
117.0,7.143154996066089,9.612785208497247
118.0,7.3751376868607394,9.409205350118016
119.0,6.043587726199842,9.037804878048782
120.0,11.502292907721703,9.375183582480986
121.0,13.543554006968641,9.141358510359296
122.0,10.984758907496907,8.531340152111198
123.0,8.712757109137911,9.149226330972986
124.0,11.58289311003709,8.810333071072645
125.0,18.577301337529505,9.448308418568056
126.0,13.632789142407553,9.664044059795437
127.0,12.236651867670751,9.458750140496797
128.0,9.123898721263002,9.508428006559399
129.0,5.740175167083114,8.940101100053893
130.0,5.520205600850762,9.430160699515538
131.0,5.19719957461893,8.969112607822286
132.0,5.43147229114971,8.29722911497105
133.0,9.556282820705176,7.30718304576144
134.0,10.046542275812856,8.251791758915338
135.0,8.452490256710519,8.736861654438
136.0,7.719793515452034,8.424075988509323
137.0,6.127235467403436,8.823731542641758
138.0,5.479071597167584,10.12769472856019
139.0,5.242289535798584,9.611447678992919
140.0,5.827124311565695,11.314693154996066
141.0,4.414771833202202,10.300491738788356
142.0,4.3271439811172305,8.421616837136114
143.0,5.164854041840666,7.866836127418346
144.0,5.381797595271237,8.066777623111218
145.0,4.522753636345296,8.380163005103997
146.0,5.332325358879253,10.443345711461369
147.0,5.165670940651271,10.464936034330211
148.0,5.545483496309618,11.935508223745831
149.0,13.570520025476753,12.420790715971677
150.0,18.49743359184744,14.682495972425162
151.0,13.443857480049456,12.982241204900529
152.0,10.021093252407178,12.81240867708216
153.0,8.734307444456933,11.367179948297178
154.0,9.420456333595594,10.690656026375931
155.0,6.9358810085796705,11.037417106889963
156.0,6.224116743471582,10.678110599078341
157.0,6.417938630999213,11.103245476003147
158.0,6.085680566483084,12.099606608969314
159.0,6.063704633944602,11.511383122516088
160.0,5.363707155681978,10.124239948354818
161.0,5.3484153402328065,10.635546410054669
162.0,6.774050313704129,10.331305856482881
163.0,6.832568598461595,10.129554617949582
164.0,6.351945412311266,9.890548312165148
165.0,6.687666254542729,9.783580607695477
166.0,7.748003072196621,9.21562980030722
167.0,6.490937019969278,9.219508448540708
168.0,9.302611367127495,9.235176651305684
169.0,19.730645161290322,9.093548387096774
170.0,12.912942564909521,7.336841070023603
171.0,8.393253343823762,7.543430369787568
172.0,7.310739575137688,8.783811959087332
173.0,5.805059613871573,9.019811273174767
174.0,4.325110452097077,8.752244346264803
175.0,4.568928160745627,8.14874215739676
176.0,6.046462506808691,7.284835280114588
177.0,5.826457059855958,7.0682240916701975
178.0,5.6456520204159855,6.799207165768928
179.0,5.1553692832213684,8.096495793742056
180.0,7.338109503923823,7.1661865278702415
181.0,5.790219189412738,8.514249833565334
182.0,4.933416046319272,8.712770078072989
183.0,4.670141620771046,8.894846577498033
184.0,4.59581038552321,8.541522423288749
185.0,4.94669551534225,8.453422501966955
186.0,5.538808025177026,8.108064516129033
187.0,5.5544846577498035,7.808064516129033
188.0,5.5506490952006295,9.335582218725413
189.0,5.037824547600314,9.915774980330449
190.0,5.308831628638867,9.365952006294258
191.0,5.033851298190401,8.492250196695515
192.0,6.518135326514555,10.072738001573564
193.0,13.933339889850512,10.01079858379229
194.0,16.95820220298977,10.465518339515192
195.0,11.38273013375295,9.581146266531789
196.0,13.201042486231312,10.16436345584654
197.0,9.375924468922108,11.218875276310367
198.0,7.809677419354839,10.54531490015361
199.0,5.680645161290323,9.896774193548387
200.0,4.76093627065303,10.737254130605823
201.0,4.01433910306845,11.674272226593235
202.0,5.155153422501967,10.426652242328874
203.0,5.3810093001674435,10.705003126954347
204.0,9.448156105630535,10.08684460045593
205.0,12.34162703936504,11.014817152425334
206.0,8.912345777747035,10.530795672986862
207.0,7.758957067060922,10.952974641408945
208.0,6.922134801993181,10.608650856093814
209.0,5.960835401157981,10.233575564220725
210.0,5.786822481216658,10.652164875512632
211.0,6.746115803944285,12.023515561281101
212.0,5.469672865817634,11.443822896222581
213.0,6.098751235651314,12.76923076923077
214.0,6.476789929189614,11.865460267505902
215.0,5.6593233674272225,11.908575924468924
216.0,5.737134095906715,9.27338860981662
217.0,7.180526135286167,7.683901228590449
218.0,7.597878714519155,9.161616131049648
219.0,7.98186618652787,8.936433557263612
220.0,10.560537547949036,8.761285135006613
221.0,18.076199698544308,9.88469752120421
222.0,19.248957441719043,10.632356628422718
223.0,21.624892285789215,8.49773331834701
224.0,16.09765464014087,8.907245888127083
225.0,10.641070023603461,8.029583005507474
226.0,7.259166011014949,7.729189614476789
227.0,6.390401258851298,7.548308418568057
228.0,5.409402045633359,7.231864673485444
229.0,5.241876475216365,6.952950432730134
230.0,5.565696302124311,6.1087332808811965
231.0,6.012903225806451,6.997324940991345
232.0,5.477812745869394,9.661762391817467
233.0,6.733963767677379,9.735267001553389
234.0,5.914660876757651,8.513502894954508
235.0,5.808284411628235,7.607528394762856
236.0,5.304142205814117,7.431586778026589
237.0,6.4994452177772395,10.14098024975287
238.0,9.630605822187253,8.66512588512982
239.0,11.135502603873965,8.52858828818703
240.0,9.755792214604174,9.00347589074969
241.0,7.857734816979507,7.468270203439362
242.0,7.89645198756135,6.998179161515117
243.0,8.276707504402232,6.541575812071485
244.0,9.968174665617624,6.01876475216365
245.0,9.847974036191975,6.684834775767112
246.0,8.06713217938631,6.575078678206137
247.0,7.054130605822188,6.1081038552321
248.0,5.388516728485257,8.915372222846653
249.0,4.518727286351204,8.341793113783671
250.0,10.283832565284177,8.45130568356375
251.0,7.827803379416282,8.650652841781874
252.0,19.480030721966205,8.517665130568357
253.0,14.064516129032258,8.124193548387098
254.0,10.27258064516129,8.041129032258064
255.0,7.915975422427035,6.586597542242703
256.0,7.357909033007381,6.4625454272975915
257.0,5.666857742310141,6.955466262035893
258.0,5.6382675808324905,6.047894421340526
259.0,6.328811209771084,7.063463339702521
260.0,5.92714398111723,8.369354838709677
261.0,5.525570416994492,8.44250590086546
262.0,4.976475216365067,8.84655782848151
263.0,4.271990558615264,8.732395751376867
264.0,5.238972946801429,8.695840142024249
265.0,12.19470283846759,8.942491274788678
266.0,14.620335290201538,9.909148863200791
267.0,14.162252617563396,9.841671205793943
268.0,10.377349754887128,8.977090520284856
269.0,8.752694728560188,9.574980330448465
270.0,5.798957513768686,10.933359559402046
271.0,5.172462627852084,10.260228166797798
272.0,5.582769472856018,9.850177025963808
273.0,5.357513768686074,8.961782061369
274.0,7.196813532651456,10.32230527143981
275.0,6.968587726199843,8.640302911093627
276.0,7.131058221872541,8.256176239181746
277.0,8.588650668764753,8.696361132966167
278.0,7.418230864336293,8.70334569705144
279.0,7.1898392716646065,9.463789292270802
280.0,6.786107676744971,9.501367502154284
281.0,6.939867371023941,10.161777378142444
282.0,6.142238956951782,8.357442583642426
283.0,6.155782848151063,8.696302124311565
284.0,5.442014162077104,7.692210857592446
285.0,4.953422501966955,6.6354051927616045
286.0,4.891266719118804,7.905900865460267
287.0,5.389378442171519,8.594335169158143
288.0,10.066129032258065,8.82258064516129
289.0,10.436443932411674,9.413748079877111
290.0,8.619667678243603,9.10903769060732
291.0,7.252044696714249,7.741684462927578
292.0,8.478549885729272,7.549363081188416
293.0,9.19356567901021,6.884296925209592
294.0,8.7093788456495,6.740458754463475
295.0,13.610168797894998,6.51089477006078
296.0,15.421921535060795,7.406116149782553
297.0,24.81520939066179,7.939092693301977
298.0,22.9551646622457,7.725873890075306
299.0,15.524356524671237,8.154872428908622
300.0,10.83729346970889,7.691030684500394
301.0,7.1851298190401245,7.519000786782062
302.0,5.5693548387096765,7.171774193548387
303.0,5.185483870967742,8.00725806451613
304.0,4.333064516129032,7.491935483870968
305.0,5.712903225806452,7.733064516129033
306.0,14.30241935483871,8.250806451612902
307.0,19.610739575137686,9.138040912667192
308.0,13.86150668764752,8.367289535798584
309.0,11.67720111648121,8.309969652691919
310.0,8.550294106627701,8.168694503765312
311.0,8.04450189202353,8.304911768011689
312.0,5.783069199355587,8.322794200292233
313.0,5.6137218538084,7.947943126896707
314.0,5.904543666404406,8.020869394177813
315.0,6.37616050354052,7.884146341463414
316.0,5.7907553107789145,7.481628638867034
317.0,5.673111723052714,7.180625491738788
318.0,8.708733280881196,8.2294256490952
319.0,7.362549173878836,8.25507474429583
320.0,5.184421715184893,8.325019669551533
321.0,6.313296616837135,8.950865460267506
322.0,14.770967741935483,8.944354838709677
323.0,14.928225806451612,9.278225806451612
324.0,11.548904052936312,10.328639371381307
325.0,9.788564929693962,9.764722911497104
326.0,7.418918578143598,8.996641550162398
327.0,7.24617250701043,8.673035566583952
328.0,5.79445722124715,7.742969396195202
329.0,5.284244689221086,14.339398111723051
330.0,6.011880409126672,13.757199055861527
331.0,6.536231313926042,11.351691581431943
332.0,8.642938630999215,9.373170731707317
333.0,7.317033831628638,8.94948859166011
334.0,7.507454760031472,8.585680566483084
335.0,16.781165936083326,8.125367164961972
336.0,18.549906335468883,9.256261473905061
337.0,13.962344985201003,9.191299501704695
338.0,17.11746281518115,8.846052976658799
339.0,13.213495473841657,9.657195021081725
340.0,16.286548044140492,9.424834069680648
341.0,17.65452500554782,9.242393431378481
342.0,16.54638130686518,8.926468155500412
343.0,11.377508119994351,9.298599931408743
344.0,9.454484657749802,9.214673485444532
345.0,12.229386309992131,9.910582218725413
346.0,13.486428009441385,9.780979543666405
347.0,11.066876475216365,8.364280094413846
348.0,8.200629425649094,7.639653815892997
349.0,7.213217938630999,7.700236034618411
350.0,5.904248623131393,8.402360346184107
351.0,5.72081038552321,8.036349331235247
352.0,5.4917977970102285,7.711723052714397
353.0,14.530173092053502,7.368450039339103
354.0,30.78303267018845,7.859415158667717
355.0,37.54249559776703,9.373524783634934
356.0,48.902247012101455,8.363788355625491
357.0,62.1579783447604,7.469394177812745
358.0,36.67497658386722,6.730763178599528
359.0,23.692233337079916,7.687306582743247
360.0,15.693351691581434,6.623760818253343
361.0,10.760208497246262,6.393076317859952
362.0,8.30228166797797,6.69008654602675
363.0,6.584028324154209,7.286585365853659
364.0,6.804838709677419,6.562096774193549
365.0,6.533497246262785,5.794531864673486
366.0,7.713926042486231,5.455330448465775
367.0,6.012608182533437,4.808713611329662
368.0,6.408320220298977,4.045889063729347
369.0,5.475531077891424,3.720928402832415
370.0,5.074193548387097,4.320967741935483
371.0,5.297580645161291,4.787096774193548
372.0,5.43501180173092,4.767171518489379
373.0,5.050806451612903,4.380271439811172
374.0,6.683064516129031,4.585700236034619
375.0,6.69758064516129,5.452124311565696
376.0,17.65806451612903,6.0220298977183315
377.0,16.739732494099133,6.005664830841857
378.0,11.751612903225805,6.112903225806452
379.0,8.99516129032258,5.973387096774193
380.0,8.183870967741935,5.620967741935484
381.0,6.096695515342249,5.5750196695515335
382.0,7.443509047993705,5.839929189614477
383.0,9.132300429704049,5.7057999959652195
384.0,22.428345336803247,5.944245395307551
385.0,27.316822437986872,6.0817233120931
386.0,19.555893516397056,6.022136242985967
387.0,14.38854583653954,6.390407599219558
388.0,10.854074407103518,6.098595032033269
389.0,8.64222209733618,6.650792401933236
390.0,7.187920085422052,6.762921958712674
391.0,6.839524558840058,7.027428721291821
392.0,6.896951219512195,6.630841856805665
393.0,6.283556254917388,6.473485444531864
394.0,6.586309992132179,6.419276160503541
395.0,7.394177812745869,5.395869394177813
396.0,6.118863099921322,5.897128245476003
397.0,5.810641227380016,6.125177025963808
398.0,6.580723839496459,6.431943351691581
399.0,6.3919354838709666,6.196774193548387
400.0,6.264516129032258,6.368548387096774
401.0,6.540243902439024,6.42918961447679
402.0,6.164083398898505,6.662136113296617
403.0,5.758949645948073,7.351632572777341
404.0,6.056490952006294,7.076219512195122
405.0,6.308890637293469,6.982061369000787
406.0,6.219669551534225,7.502517702596381
407.0,5.119826907946498,8.19516129032258
408.0,4.420967741935484,7.723387096774194
409.0,4.411762391817467,7.8940401258851285
410.0,3.585680566483084,7.637863886703383
411.0,3.9092250196695515,7.02625885129819
412.0,5.282435090479937,6.919177812745869
413.0,6.360975609756098,6.013217938630999
414.0,6.205271439811172,8.051376868607395
415.0,5.675570416994493,7.223013375295043
416.0,5.472081413210446,6.9235407066052215
417.0,5.2364439324116745,6.873463901689708
418.0,4.577496159754224,6.591973886328725
419.0,4.437135176651306,6.592357910906298
420.0,14.872196620583718,7.682872503840246
421.0,19.726706676669167,7.119523630907727
422.0,17.926669624723253,7.3269431687190085
423.0,17.426833276263316,7.715871737969335
424.0,13.250651099185946,8.00478874073919
425.0,10.3692771624962,8.442716951014756
426.0,8.033164737177326,8.055786594732306
427.0,8.369454123112659,8.224588812708403
428.0,11.408379228953578,9.168961447678992
429.0,13.007213105541194,8.568258027050316
430.0,13.194447566595482,8.564946985875387
431.0,9.341126222322131,8.577910156981753
432.0,7.4169045745757,8.463699374320932
433.0,7.951803978869282,7.527837098647484
434.0,7.94963470832865,7.661076767449702
435.0,6.471361132966168,7.705192761605035
436.0,4.914516129032258,7.998387096774193
437.0,4.922403619197482,9.063571990558614
438.0,4.656766325727773,8.836624704956726
439.0,6.31272973027497,8.381835925679358
440.0,5.807171316750388,8.530030866065484
441.0,6.112859851923581,8.31178962658113
442.0,5.312055417700579,7.593424317617866
443.0,5.0088502894954505,6.949131513647642
444.0,4.188552321007081,8.105232100708104
445.0,3.8889766213330335,8.54597242516204
446.0,4.81021411711813,8.052018470645535
447.0,4.623232550297853,8.697144168446293
448.0,5.642261436439249,8.968330148739275
449.0,5.1902888614139595,9.277398748641865
450.0,5.465420928402832,9.164889850511408
451.0,5.181904012588513,8.847364280094414
452.0,5.332258064516129,9.603225806451611
453.0,5.114516129032258,8.176612903225806
454.0,5.578225806451613,9.183280881195909
455.0,6.568548387096774,9.426317859952793
456.0,5.785483870967742,8.9889653815893
457.0,7.462903225806452,10.508595594020456
458.0,5.930133752950433,9.776789929189615
459.0,7.500865460267506,9.545751376868608
460.0,8.815332883743583,8.635663706867483
461.0,8.566652616987,10.041679779701024
462.0,7.062492975160166,10.136450488928853
463.0,7.021333033606834,9.517005732269304
464.0,6.501382488479262,8.762672811059907
465.0,5.566052227342549,9.378341013824885
466.0,5.457776029373197,9.453276385298416
467.0,5.992328874901652,9.554287962234461
468.0,5.563829568019182,8.676606346708628
469.0,5.73035105466262,9.206104117492789
470.0,6.800659398299052,8.584906897456072
471.0,5.493248660597205,7.892689483346446
472.0,4.125656588363118,8.719328612640965
473.0,4.830723839496459,8.684933123524782
474.0,4.991129032258065,8.483064516129032
475.0,4.563709677419355,8.318548387096772
476.0,4.510483870967742,8.958064516129031
477.0,4.927989771833202,7.988257277734067
478.0,4.400688434303698,8.03566089693155
479.0,4.8108182533438235,8.151062155782848
480.0,4.672344610542879,6.808595594020455
481.0,4.3805271439811175,7.766797797010227
482.0,5.563355625491739,7.74311565696302
483.0,5.987188565434041,7.274411426496398
484.0,5.773924731182795,6.794168734491315
485.0,6.540178337267243,7.965318041517883
486.0,6.22520325203252,7.039012285904496
487.0,5.685890375032782,8.090827936815348
488.0,6.064162077104642,7.7115460267505895
489.0,4.826435877261998,8.114240755310778
490.0,4.270967741935484,7.214791502753737
491.0,4.389457120377655,6.578442171518489
492.0,8.098033044846577,6.587647521636507
493.0,7.570967741935483,8.917741935483871
494.0,7.59758064516129,9.643625192012289
495.0,9.402227342549924,9.228571428571428
496.0,11.236695890000373,9.16347926267281
497.0,9.123558863114331,9.066303320335578
498.0,6.412281005121288,7.979207915085176
499.0,6.270066545046876,7.990119112463722
500.0,5.035102584276463,9.090943936734652
501.0,6.562941123916733,7.804304533651504
502.0,5.646023004008842,7.648495747630287
503.0,4.398149188865161,7.361620021730171
504.0,4.770514405604885,7.692533063579483
505.0,4.372275298789854,7.647997452324754
506.0,4.0071821962459255,7.379682289910456
507.0,4.899979393803154,8.557530628301674
508.0,4.242166835262823,8.453468397587201
509.0,4.282776966018508,8.484395489116181
510.0,5.75468509984639,8.544086021505375
511.0,5.358218125960061,8.570506912442397
512.0,6.121658986175115,8.529339477726575
513.0,6.465066876475216,9.619236821400472
514.0,5.079422839159267,8.985885691806226
515.0,6.138403394402607,9.113094301449927
516.0,12.582213105541193,8.195197819489714
517.0,13.154658873777677,9.196920310216926
518.0,10.972372709902213,8.736619085084861
519.0,9.697246262785209,9.44642014162077
520.0,6.822265932336743,7.973406766325727
521.0,6.535444531864673,6.927694728560189
522.0,5.8024718069761345,7.638138323779551
523.0,5.973413322842905,6.858585290922035
524.0,5.975819564647258,7.098647484170694
525.0,6.3290584841332285,6.7850436476714995
526.0,5.896236559139785,6.509831029185868
527.0,5.416935483870968,7.467741935483871
528.0,5.833870967741936,8.150806451612903
529.0,7.326042486231314,8.613394964594807
530.0,6.972852272301525,8.626225132066988
531.0,6.881587426473343,8.935289985388334
532.0,5.748051777752801,8.086596605597393
533.0,5.960316211457045,9.127975722153534
534.0,8.01320295230602,7.628503990109025
535.0,14.71397474804241,7.276617586452362
536.0,20.839514255741634,8.123600651905136
537.0,15.358985238469895,7.6310975609756095
538.0,10.07021842568656,9.187726199842643
539.0,8.612213854857442,9.201652242328873
540.0,7.115293544640515,8.994994567457194
541.0,7.63061144205912,9.52629912704657
542.0,6.755397886928177,9.317681053538646
543.0,6.654715072496346,9.229328237982841
544.0,6.016144883178715,9.628826196096062
545.0,5.554885974240813,9.912288786482334
546.0,4.185277088502895,9.36221198156682
547.0,4.989412737799834,9.090015360983102
548.0,5.809222497932176,8.293548387096774
549.0,6.481451612903225,8.062903225806451
550.0,6.74516129032258,7.751612903225806
551.0,6.005546813532652,8.629996066089694
552.0,5.205999213217939,9.192014162077104
553.0,5.303383162863887,8.275963808025177
554.0,6.408143194335169,8.604110936270652
555.0,5.36294256490952,8.606490952006293
556.0,5.231260465210111,7.683715124372086
557.0,6.07933991002441,6.910809175089269
558.0,5.829363110008272,7.310794044665013
559.0,5.206617038875104,8.686042183622828
560.0,4.9163653550750315,8.591811414392058
561.0,6.190202690045333,7.2193154996066085
562.0,6.5071981192162145,7.6765932336742715
563.0,7.49916357573714,7.972167584579071
564.0,6.861275336255667,9.088906372934696
565.0,6.478717545239968,8.871872541306058
566.0,6.410483870967742,8.160483870967742
567.0,6.05,7.71774193548387
568.0,6.334677419354838,7.209677419354838
569.0,6.693233674272227,6.625216365066876
570.0,6.824173878835563,7.465774980330448
571.0,7.200083217333414,9.608569872299219
572.0,13.301565998910611,9.545709011680685
573.0,10.246347515584336,10.186564183259698
574.0,16.188476668885798,10.67117351570538
575.0,22.00611874356957,10.186491557223263
576.0,17.33308418568057,9.366730358547823
577.0,10.928840245775728,9.914004720692368
578.0,7.880184331797235,9.34356150013113
579.0,5.681083511295943,9.423393653291372
580.0,5.637551983814769,8.131051665355365
581.0,6.60772170394515,9.326596980255516
582.0,5.665771233749203,8.825544190925779
583.0,6.057002360346184,9.379976396538158
584.0,5.7578284815106215,8.32509834775767
585.0,5.987883556254918,8.242800944138473
586.0,5.566011014948859,7.217151848937844
587.0,7.742092840283242,7.337922895357986
588.0,10.812981904012588,9.4705743509048
589.0,14.751416207710463,10.681392604248623
590.0,10.075393391030683,9.27421321793863
591.0,8.527616050354052,9.102832415420927
592.0,8.196774193548386,9.29516129032258
593.0,6.924645948072383,10.352714398111722
594.0,7.128855232100708,9.51587332808812
595.0,6.019807238394964,9.981038552321007
596.0,5.6982100708103856,9.557454760031472
597.0,6.295476003147128,9.36219512195122
598.0,11.235070810385523,8.877793076317861
599.0,17.326947285601886,7.796970889063729
600.0,16.54714229515567,6.803490877074669
601.0,11.396141957963358,6.791940167097523
602.0,8.736087935143797,7.138805071141814
603.0,8.783307539562458,7.045405682699153
604.0,5.983156523518443,7.090759489657994
605.0,5.581440012911296,7.56550263269382
606.0,6.483953680727874,8.768982630272953
607.0,6.844571203776554,8.40452399685287
608.0,5.680723839496459,7.71485051140834
609.0,6.043587726199843,7.574763965381589
610.0,5.462116443745083,6.265204563335956
611.0,6.54799370574351,6.805586152635719
612.0,6.371243115656963,8.176593233674271
613.0,12.577045633359557,8.078855232100707
614.0,26.905400696864113,9.375890749690907
615.0,17.342946124161703,10.050426173616575
616.0,11.683028923607209,8.631654864935745
617.0,8.33434491026938,8.379753474954104
618.0,6.826181109737364,6.758405455022292
619.0,6.649496084822599,8.511921621520363
620.0,5.378520849724627,8.655468135326515
621.0,6.1286782061369,8.667623918174666
622.0,5.563945712037766,8.305881195908732
623.0,5.308044846577498,8.18511014948859
624.0,5.797167584579071,8.804248623131393
625.0,5.4369787568843435,8.349645948072382
626.0,5.11117230527144,9.58394964594807
627.0,4.397521636506688,8.302439024390242
628.0,5.316935483870967,7.661290322580645
629.0,5.17486231313926,8.18491345397325
630.0,6.0930763178599525,8.80334382376082
631.0,5.200570416994493,8.963768686073958
632.0,5.314398111723053,9.426239181746656
633.0,5.008811959087333,8.741345397324942
634.0,5.162980030721966,7.8058755760368665
635.0,5.012272863512045,8.5227745307407
636.0,6.036693080064441,8.217258626503316
637.0,6.699394927128995,9.989274474541979
638.0,5.427923270016111,9.071653366303249
639.0,4.731549960660896,8.372462627852084
640.0,4.501888276947286,8.720062942564908
641.0,4.6813139260424865,7.6558615263571985
642.0,4.739044059795437,7.9101888276947285
643.0,4.224763965381589,7.630094413847364
644.0,4.498269079464988,7.936821400472069
645.0,9.997364280094413,9.134421715184894
646.0,12.20796616837136,10.35163257277734
647.0,9.04659716758458,9.335031471282454
648.0,7.471872541306057,9.307022029897718
649.0,6.302911093627065,9.606608969315499
650.0,14.438237608182533,10.390243902439025
651.0,22.401483646172863,10.135438911992807
652.0,17.4934247499157,9.4367989209846
653.0,13.727960735828557,9.460634670862838
654.0,11.297497283728596,11.306871230002622
655.0,8.913894196545652,11.100721216889589
656.0,8.142178075006555,10.992110636544153
657.0,6.531541891101293,11.112153333160414
658.0,8.016688857955577,10.90441505779822
659.0,12.80915088059069,8.803013980512013
660.0,18.899573754333783,8.207228019816533
661.0,27.199758777807556,7.799522743189147
662.0,18.727198306545276,7.898048031171556
663.0,13.610176651305684,6.822273425499232
664.0,9.596620583717359,5.20952380952381
665.0,7.643010752688172,4.660983102918586
666.0,6.015437788018433,4.300508094056481
667.0,5.412949121426697,3.95831668986665
668.0,6.345528455284553,5.119244890960076
669.0,6.075260387396501,6.002249173590637
670.0,6.304162451762766,6.339431038408222
671.0,6.614446817279232,6.175340002247948
672.0,6.259229702896107,6.007732943688884
673.0,5.837403993855606,6.644700460829492
674.0,7.1217741935483865,6.658064516129032
675.0,5.571774193548386,5.583870967741936
676.0,5.6943548387096765,6.179838709677419
677.0,8.196351766513057,6.376190476190477
678.0,10.694969278033794,7.949807987711213
679.0,11.192754111872915,7.291318234610917
680.0,8.941735041774379,6.819705144056049
681.0,8.958731407590573,5.9445693304859315
682.0,7.664081525607883,5.576355325765238
683.0,12.334382376081825,5.631785995279308
684.0,24.02026900453336,6.223483571241243
685.0,17.203289498332772,5.30135626241055
686.0,12.703611704319808,4.542259563148627
687.0,8.85341875538571,5.257420104154958
688.0,8.04433329586752,5.606680154359147
689.0,6.492250196695515,7.28831628638867
690.0,5.35902832415421,7.613473642800944
691.0,12.22741935483871,7.1565302911093625
692.0,14.667977970102282,7.737214791502754
693.0,14.67741935483871,8.052714398111723
694.0,11.024547600314714,6.682769472856019
695.0,9.595908733280883,6.557041699449252
696.0,6.753501180173092,7.455782848151062
697.0,5.309874114870182,8.076435877261998
698.0,8.94250590086546,9.544118804091266
699.0,14.033674272226595,8.372993705743509
700.0,10.74506294256491,7.953029110936271
701.0,8.630999213217939,7.300708103855232
702.0,7.420849724626278,7.742564909520063
703.0,5.996970889063729,8.172462627852084
704.0,18.00779569892473,9.672964669738864
705.0,11.803868345135063,8.064059046120416
706.0,7.3966430632048255,6.932619609606234
707.0,6.076547338054025,7.3211485144805355
708.0,4.444322056123786,7.069041999175752
709.0,5.472698662470495,7.020849724626278
710.0,5.01927616050354,5.999331235247836
711.0,5.466129032258064,6.312096774193549
712.0,5.623387096774193,7.250806451612903
713.0,5.2326711250983475,5.994453186467348
714.0,6.138512981904013,6.1472265932336745
715.0,4.466030684500393,6.2183713611329665
716.0,6.526160503540519,10.318863099921323
717.0,6.414577947622794,19.540633546888465
718.0,7.473221310554119,14.287625978794349
719.0,8.67616429368666,12.143072179194624
720.0,8.244907481225708,10.414474720596525
721.0,8.95781959427139,9.674123670290395
722.0,6.8448758531096185,7.857958392037034
723.0,6.331879311291237,8.649907598850934
724.0,6.167741935483871,9.012116443745082
725.0,6.548671836948784,8.471645873140758
726.0,5.570559364579821,8.489088082125061
727.0,5.716829642950808,8.088761192911468
728.0,5.730995466636694,8.098816080326701
729.0,5.515143681390731,8.32375894496272
730.0,5.226081825334383,6.962647521636506
731.0,4.759753071476124,6.3876616433658135
732.0,5.156037039278581,7.337811938913433
733.0,4.369147551897354,8.776164033972846
734.0,4.083798341705501,8.590553067441345
735.0,3.8580282031108153,8.487615243398093
736.0,3.885341644979725,7.761590913675887
737.0,4.304590570719603,7.011952026468156
738.0,4.828908188585608,7.755169561621175
739.0,4.778225806451613,7.922580645161291
740.0,5.568548387096774,7.466129032258065
741.0,5.0048387096774185,7.671774193548387
742.0,6.114240755310779,7.535601888276947
743.0,5.313099921321793,6.902911093627065
744.0,5.458162863886704,6.714358772619985
745.0,6.602065302911093,6.340243902439024
746.0,7.242564909520063,6.824154209284028
747.0,7.330667352579233,6.4429835179245085
748.0,6.508291976840364,8.396629445822994
749.0,5.0868072787427625,8.272911497105046
750.0,11.419996873045653,7.702938832738203
751.0,12.042502370433132,9.158973350279407
752.0,13.870259638080253,9.012922895357985
753.0,11.778697875688433,8.546105428796224
754.0,13.780113146753587,10.114757783522535
755.0,13.469521561575062,10.821737664381253
756.0,9.377955115956688,10.138248847926267
757.0,7.627057809748605,10.372664943239295
758.0,7.0510246899704025,10.781514368139073
759.0,6.31088007193436,9.307976471469782
760.0,6.037816117792514,9.102532688921357
761.0,6.064541418455659,9.949771458544078
762.0,8.610093289872992,9.651301936982502
763.0,13.21243115656963,11.0794256490952
764.0,11.943051965081864,11.605015735641228
765.0,8.584429208347382,11.322265932336743
766.0,8.245873140759057,9.694099134539732
767.0,6.9390656026375925,10.089142407553107
768.0,14.12980030721966,10.882258064516128
769.0,13.166129032258063,10.744354838709677
770.0,12.666758457907159,11.388709677419355
771.0,10.109205350118016,10.333949645948072
772.0,7.642407553107789,9.706530291109361
773.0,5.729061510218079,9.786143557465351
774.0,5.894369464786459,12.682587907764933
775.0,5.386681191873953,12.289681050656661
776.0,5.3609439079147965,10.137066369245755
777.0,4.497545124689106,8.924552067392352
778.0,5.584918137199805,8.61190382525945
779.0,10.098104229890225,7.6700648158555325
780.0,12.644213405267692,7.914064665992282
781.0,9.860739575137686,9.156648308418568
782.0,9.387096774193548,9.420967741935485
783.0,7.343981117230527,8.679661683713611
784.0,9.105055074744296,7.852734067663257
785.0,7.913222621857555,7.56555674197295
786.0,6.915501479899591,6.72530909295268
787.0,5.688357498782361,8.307259001161441
788.0,6.660465138061518,8.746076392791577
789.0,6.430035644799702,8.532800011849652
790.0,6.70281333399552,6.766915160845961
791.0,7.27383370232802,7.1572671042325045
792.0,7.125349281571264,8.983386090425046
793.0,6.260550329219935,9.518050244268384
794.0,6.6536810160728335,8.34162077104642
795.0,7.809137911655615,7.588591660110149
796.0,10.09542917088157,7.900670638042785
797.0,20.137613802405305,6.688898879772207
798.0,33.59673766438125,7.513214192049754
799.0,19.945487242890863,6.359596867858079
800.0,14.738675958188153,6.1042673560376155
801.0,11.26127937103547,5.910930794880441
802.0,8.794310960479333,6.219290282232847
803.0,7.749476487320704,6.2388347555932135
804.0,7.579301579616292,7.07315459258811
805.0,6.487841191066997,6.654673283705542
806.0,18.00833988985051,7.249606608969315
807.0,14.681176239181745,7.988886703383162
808.0,14.363040912667191,7.404622344610543
809.0,13.507564707781071,7.016961709939681
810.0,18.032096673324055,7.071334906897456
811.0,19.00227965058807,6.687595069499082
812.0,15.991147693114648,6.171885654340414
813.0,15.255998708870464,5.001993181222135
814.0,11.310464201416206,4.328953579858379
815.0,8.138709677419355,3.9596774193548385
816.0,6.204280397022332,4.325723738626964
817.0,7.3710918114143915,5.192700578990902
818.0,6.896836228287841,5.268527708850289
819.0,6.398014888337469,6.006038047973531
820.0,5.917536161713975,5.876465129415562
821.0,5.346361132966169,5.558497246262784
822.0,7.014771833202203,5.2874901652242325
823.0,6.380369787568844,5.577616050354052
824.0,5.932926829268293,6.78477576711251
825.0,5.304543666404406,7.184598741148702
826.0,5.426868607395751,8.011250983477577
827.0,6.302419354838709,7.111290322580645
828.0,7.006451612903225,6.364516129032258
829.0,8.424744295830054,6.830586152635719
830.0,8.064181746656176,7.498485444531864
831.0,7.478461841070023,6.7440007867820615
832.0,6.044534890758337,6.633859367750005
833.0,6.14671669793621,6.7887530513022245
834.0,7.187756460691158,6.076359216445763
835.0,6.025978938449434,6.661625713651677
836.0,7.74121527567633,6.497345114890355
837.0,6.298151062155783,5.866207710464201
838.0,5.654032258064516,5.854032258064516
839.0,5.8032258064516125,5.600806451612904
840.0,5.608870967741936,5.8314516129032254
841.0,5.649291896144768,7.635110149488591
842.0,8.159480723839497,6.653009441384736
843.0,9.575,6.315932336742722
844.0,6.979818031430934,6.830153926849442
845.0,7.758437733260707,7.609372793479795
846.0,6.895269220682281,8.002404728761928
847.0,6.5171861445661605,8.464774354939578
848.0,9.65552462224374,9.007760898948941
849.0,9.640558615263572,9.220416994492526
850.0,6.786447678992918,8.454032258064515
851.0,7.664260424862313,7.4270849724626276
852.0,6.9661683713611335,9.04720692368214
853.0,6.1680566483084185,8.926199842643587
854.0,6.453973249409914,8.157199055861525
855.0,7.767741935483871,7.038158929976396
856.0,13.953815892997639,7.943863099921322
857.0,19.474648469809758,9.226778329197684
858.0,14.921588593677498,9.153977284189715
859.0,11.61492256104766,9.101988642094856
860.0,10.623383782490784,10.295693376908954
861.0,13.410559018741552,10.499401987993647
862.0,10.219399797684613,9.774455809074219
863.0,8.660998089243565,10.444112247574088
864.0,7.545786969390432,7.73307107264621
865.0,8.124585066127159,8.618699186991869
866.0,13.630864336293131,9.840286988123337
867.0,22.65554681353265,11.923721479150275
868.0,15.537297216290135,11.289011277209546
869.0,11.412086471095126,10.90712225094601
870.0,8.10808886890712,8.924843580233038
871.0,6.941890524896032,7.651343149376194
872.0,10.03817766288262,7.657525008429808
873.0,8.75487992207111,8.031527481173429
874.0,8.247409239069349,8.558390468697315
875.0,7.502304147465438,9.288479262672812
876.0,7.419047619047619,8.19062980030722
877.0,6.353225806451612,8.27826420890937
878.0,5.404032258064516,7.550806451612903
879.0,8.871675845790715,7.467722265932337
880.0,9.157266494323931,8.010032407927765
881.0,7.910143868719793,9.820092915214866
882.0,7.417015098722416,9.039577947622796
883.0,6.052114945112585,8.399460492300776
884.0,5.900329699149526,8.131358885017422
885.0,6.041592239389249,7.2488000853067724
886.0,5.54400619050501,7.114958657916958
887.0,10.654725735842966,8.975757025560329
888.0,13.91272872158002,8.341143658334847
889.0,12.439505681834557,7.632284578783398
890.0,13.84807613053089,7.018021055786594
891.0,17.51278708178787,6.929624217901165
892.0,11.784009591247987,8.104229890225168
893.0,8.111674347158218,7.798771121351766
894.0,5.984715821812596,7.503379416282643
895.0,6.699193548387097,7.803225806451613
896.0,5.687096774193549,8.513709677419355
897.0,5.747580645161291,8.86774193548387
898.0,6.550806451612903,8.080645161290322
899.0,7.514948859166012,8.506412273800159
900.0,5.950050939094999,8.278867840787589
901.0,5.214138372773306,7.462821017167988
902.0,3.958278863806008,7.234233089229155
903.0,5.474703948032036,7.050833902525484
904.0,6.480074239948355,6.818886660153379
905.0,9.046498819826908,6.716247986212581
906.0,14.650361545090107,5.990055636731483
907.0,21.362968790978233,5.129762841407215
908.0,15.668427559851636,5.526094938368738
909.0,16.613128020681128,4.216627327563598
910.0,11.116398786107677,3.549305009179124
911.0,9.221025813944776,4.576879847139485
912.0,7.254606421640253,3.9176126784309315
913.0,5.455029785320894,4.249896969015773
914.0,4.630032595256828,5.534232512832041
915.0,5.627919523434866,6.2671162564160205
916.0,5.618568056648308,5.623957513768685
917.0,7.190322580645161,5.945967741935483
918.0,10.526612903225807,11.556451612903224
919.0,10.343863099921322,13.588335955940202
920.0,8.870431174866887,11.592508188022613
921.0,8.042608060551723,9.303934585562766
922.0,6.683227993409503,9.050066371122396
923.0,6.912208017161085,7.603013122618633
924.0,6.056497399611226,5.889547473976508
925.0,5.541602038140197,4.352650706230564
926.0,5.300370911543217,4.993222434528493
927.0,4.175531077891424,5.6721872541306055
928.0,5.6577891424075535,6.6213021243115655
929.0,7.198937844217152,7.12751770259638
930.0,5.858674272226593,7.971302124311565
931.0,6.382159716758458,8.87476396538159
932.0,5.527773406766325,10.398269079464988
933.0,6.906687647521636,10.135641227380017
934.0,6.165696302124312,9.12690794649882
935.0,5.680645161290323,8.630645161290321
936.0,4.995771046420142,9.232848151062157
937.0,5.8851298190401256,8.807710464201417
938.0,5.604150275373722,9.079779701022817
939.0,5.846602787456446,8.845496609343973
940.0,6.206961147952493,9.059345846914688
941.0,12.224682477239519,8.672211606908697
942.0,17.420441347270618,7.812108950582594
943.0,16.622887864823348,7.748847926267281
944.0,11.977483046719868,7.512344985201004
945.0,14.896894084148215,7.182308643362932
946.0,13.17409988385598,7.353519913079315
947.0,9.62918961447679,7.7558315537072415
948.0,6.364752163650668,8.37309205350118
949.0,6.739099321868794,7.509388932599004
950.0,7.049172005544939,7.565552058746393
951.0,5.2463601963208575,7.790034093889326
952.0,5.36857742310142,6.628533962758982
953.0,16.18932411674347,7.040860215053764
954.0,18.72822580645161,6.470967741935484
955.0,12.400039339103069,6.700629425649096
956.0,9.539240755310779,7.589496459480723
957.0,7.336683713611329,6.650944138473642
958.0,6.127321007081038,6.0243312352478355
959.0,7.230999213217938,6.787568843430369
960.0,5.723210070810385,5.888119590873329
961.0,5.6715184893784425,5.607553107789142
962.0,6.894689221085759,7.743981117230527
963.0,5.615322580645161,7.074193548387097
964.0,5.7508064516129025,6.293548387096774
965.0,6.27741935483871,7.310483870967742
966.0,5.0869197482297395,6.601573564122738
967.0,11.94352871754524,6.743843430369788
968.0,13.907494099134539,6.051160503540519
969.0,13.23156963021243,6.380822187254131
970.0,9.823446105428797,5.8964594807238395
971.0,7.764122738001573,6.750196695515342
972.0,6.487490165224233,6.785169158143194
973.0,6.74492525570417,6.931136900078679
974.0,6.28233205949571,8.089089955415682
975.0,4.497804503390656,7.971570941515866
976.0,4.675475815818066,8.194459742984526
977.0,3.9373346821025814,7.716181484395488
978.0,3.7869206848750516,8.118987673747704
979.0,3.58985051140834,6.969708890637293
980.0,5.000904799370574,7.023878835562549
981.0,5.955272952853598,6.791004962779156
982.0,6.318362282878412,6.737034739454094
983.0,7.008374689826303,6.560856079404466
984.0,5.550420625794347,6.923651879198692
985.0,5.367539187798826,7.073509653210676
986.0,5.360444531864673,8.049409913453973
987.0,5.154819040125885,7.942446892210857
988.0,4.326199842643588,7.647836349331236
989.0,4.987726199842643,7.152242328874902
990.0,4.641935483870968,8.053225806451612
991.0,5.053697875688434,7.910582218725413
992.0,5.401042486231313,8.784323367427222
993.0,4.819866247049567,9.901081825334382
994.0,5.542269866247049,9.085208497246263
995.0,5.191699449252557,8.670023603461841
996.0,5.64226986624705,9.10605822187254
997.0,5.183556254917388,8.552399685287176
998.0,5.1421321793863095,9.576357199055861
999.0,5.124735866022254,8.28079783447604
1000.0,5.974560713349069,8.221984938743397
1001.0,8.677344423213817,8.40650406504065
1002.0,7.383912180135626,8.71859428271702
1003.0,6.44254617661384,8.417912404930501
1004.0,10.454452811809224,8.59889475853284
1005.0,12.16332471619647,10.090307594320182
1006.0,11.384657749803303,9.331943351691582
1007.0,8.033477576711249,10.753068450039336
1008.0,14.364103068450039,8.781726986624705
1009.0,10.150904799370574,8.8323564122738
1010.0,7.079561462665318,8.507595256828145
1011.0,6.4522807313326584,8.644523434865686
1012.0,5.911221010827619,9.06943913678768
1013.0,6.2036828893634555,6.862886366190851
1014.0,5.956758832565284,5.9076036866359445
1015.0,9.85773013375295,6.58412667191188
1016.0,8.703461841070023,6.112128620134127
1017.0,6.543961447678994,5.5200395264321305
1018.0,5.5269276160503535,4.622441085009928
1019.0,6.422501966955153,5.338728410325578
1020.0,6.516679779701023,8.20335319021393
1021.0,7.292210857592448,8.82202989771833
1022.0,7.291030684500393,8.303383162863886
1023.0,7.435908531541891,8.643632108777663
1024.0,5.83728287841191,8.624034030485642
1025.0,6.544351884674466,7.969505494505494
1026.0,6.843360049339593,6.8304156111394505
1027.0,6.477856263851543,7.193453281572872
1028.0,5.195586527293845,7.841557079165261
1029.0,5.805320145367352,8.415555805327639
1030.0,5.998819826907946,7.791188040912667
1031.0,4.88375295043273,9.14390243902439
1032.0,5.263276947285602,8.981864673485443
1033.0,5.3991345397324935,8.98640833988985
1034.0,4.749783634933124,9.736329661683714
1035.0,4.427124311565697,8.88147128245476
1036.0,5.325255704169946,8.235090479937057
1037.0,5.353422501966955,7.790243902439024
1038.0,10.69520062942565,9.591424075531076
1039.0,14.22656700760556,9.837786145142557
1040.0,12.370954628901128,10.756815967929263
1041.0,9.660477314450564,10.32558540331947
1042.0,7.956202465250458,9.921014574201042
1043.0,6.5763703120902175,9.952167397250008
1044.0,6.195712037765539,9.8713217938631
1045.0,6.854032258064516,9.66532258064516
1046.0,6.399193548387096,9.177419354838708
1047.0,5.989516129032257,10.100806451612902
1048.0,7.086290322580645,9.23709677419355
1049.0,6.21774193548387,8.795967741935485
1050.0,5.2965821812596,7.574615975422427
1051.0,6.631797235023042,7.554416282642089
1052.0,6.183876587613802,8.081702633846614
1053.0,6.759473446825925,7.610505990207013
1054.0,6.093043175025866,7.7084788015551196
1055.0,5.038841095961473,7.9421435632293225
1056.0,6.61127922693619,8.403790675623878
1057.0,15.726174625269824,7.422981097056628
1058.0,12.450999400547001,8.535784534112622
1059.0,14.592684800119889,8.92202053126522
1060.0,12.186664980705105,9.594527181446928
1061.0,9.914270727960735,9.12384698962197
1062.0,8.29513693754449,8.35366228316661
1063.0,8.503712862013412,8.706324229140908
1064.0,7.071518489378441,9.287647521636506
1065.0,11.236152635719904,8.205507474429583
1066.0,12.745535011801731,7.160582218725413
1067.0,14.391411899142033,6.18662751489266
1068.0,19.014067475928215,6.459137911655613
1069.0,16.62388070885317,6.3437113633809155
1070.0,19.114083398898508,7.184444194672361
1071.0,21.327301337529505,7.73462965044397
1072.0,13.355138436176988,7.621557828481511
1073.0,9.065138061518864,7.094571203776554
1074.0,7.99207720048479,6.721823138711507
1075.0,6.4508005050043,7.089943827420269
1076.0,6.790703163595777,6.685412511664501
1077.0,5.166398001939509,6.445381314840906
1078.0,6.574328033227818,6.226319689678517
1079.0,5.83007474429583,5.939791502753737
1080.0,6.301966955153422,5.354445318646734
1081.0,5.910621557828481,6.1752557041699445
1082.0,5.767269866247048,6.285110149488592
1083.0,5.462745869394178,6.041443745082612
1084.0,4.854760031471283,6.684028324154209
1085.0,5.815578284815106,6.515342250196696
1086.0,4.843509047993706,6.641935483870968
1087.0,5.880448465774981,7.463060582218725
1088.0,5.15241935483871,6.915322580645161
1089.0,4.722836349331235,6.663690007867821
1090.0,5.826337529504327,6.443135326514556
1091.0,6.424055861526357,6.4929386309992125
1092.0,7.494531864673485,8.224744295830053
1093.0,12.217427222659325,9.184146341463414
1094.0,9.678186467348546,9.004346970889063
1095.0,8.417722265932337,9.150157356412272
1096.0,17.93194335169158,9.769197482297402
1097.0,20.15893934284965,10.574344348282192
1098.0,14.243690757184071,9.783228429058482
1099.0,9.651723427372524,9.81106740099659
1100.0,7.097635907234649,9.402307894046682
1101.0,6.148739275411187,8.664568581169682
1102.0,5.210621557828482,8.39464988198269
1103.0,6.402321007081039,8.800157356412274
1104.0,6.963709677419355,9.351612903225806
1105.0,7.284520062942565,8.936624704956728
1106.0,9.593584916263909,9.021307744183433
1107.0,9.653666966393166,9.325278183657414
1108.0,13.662374957850961,8.839904836836388
1109.0,22.24525120827245,9.308268704806864
1110.0,24.773294368888386,9.199374320932149
1111.0,17.469596493199955,8.951069648945335
1112.0,12.516072833539395,8.204803117155596
1113.0,17.370686748342138,8.675328762504213
1114.0,13.952849275036531,9.731448802967291
1115.0,9.532229965156795,8.762393690757182
1116.0,7.9174974710576596,8.898708366115919
1117.0,5.745442283915926,8.36669289273538
1118.0,6.013476452736878,8.55234723314975
1119.0,6.5531583679892105,8.017715709415159
1120.0,6.003088119590874,8.288493312352479
1121.0,5.390440597954367,8.140302911093626
1122.0,7.3421481023565995,8.08526282267431
1123.0,9.692405679817167,9.591510246899704
1124.0,10.807178449664681,9.099216964519876
1125.0,13.870308343636431,10.360308718294554
1126.0,13.979843392903975,9.257180322955303
1127.0,14.597678992918961,10.96369000786782
1128.0,10.96532258064516,9.962096774193547
1129.0,10.105645161290322,9.333064516129031
1130.0,8.475806451612904,10.312903225806451
1131.0,14.627439024390245,9.7331038552321
1132.0,11.016081263347196,8.916455921471655
1133.0,9.077798696189728,10.261050541380989
1134.0,7.359385186017759,9.647952493349816
1135.0,7.228886141395976,10.693331085384585
1136.0,5.876693670871484,9.540314799284115
1137.0,7.653784623454175,9.411478444188909
1138.0,6.92164054146745,9.076893824769513
1139.0,17.019592890717988,8.883214811676654
1140.0,23.75626341924532,8.602724917359064
1141.0,16.798609081712936,9.597356786931925
1142.0,13.799629088456783,8.48898130455959
1143.0,11.641281705443781,8.771821962459256
1144.0,7.910156981754149,8.65849162639092
1145.0,6.748061144205911,9.014701584803866
1146.0,6.572571278708178,9.163418380727585
1147.0,6.570864710951257,9.248821700198569
1148.0,5.3405782848151055,10.401062155782848
1149.0,6.1799857629912704,9.646345209995879
1150.0,6.172604997939381,9.947090779663558
1151.0,5.8894102881120975,9.618962384324304
1152.0,5.631290509909707,8.927390318834064
1153.0,5.5208871904387244,9.272162901352516
1154.0,6.532179386309992,10.673485444531865
1155.0,5.898269079464988,9.892604248623131
1156.0,4.858261211644375,9.944807238394965
1157.0,5.186801730920535,8.955487804878048
1158.0,5.351711250983477,6.461742722265933
1159.0,5.475019669551534,6.952753737214792
1160.0,4.470884380502792,7.691374433329587
1161.0,5.687535124199169,8.145629612978157
1162.0,6.355175901989434,7.431194035442658
1163.0,5.719680791277959,7.752575774605671
1164.0,7.476677531752275,6.687066801543591
1165.0,6.544790378779362,6.6234873178224865
1166.0,5.949660934397362,7.327181446929677
1167.0,5.971998051777753,6.999782698287812
1168.0,5.794102881120978,6.81680716346334
1169.0,5.717665130568356,7.8715821812596
1170.0,6.885483870967742,7.467741935483871
1171.0,7.252419354838709,8.326612903225806
1172.0,5.983792289535798,8.549744295830056
1173.0,5.985759244689221,8.031884343036978
1174.0,6.701868607395751,7.32285601888277
1175.0,6.267466561762392,9.315460267505902
1176.0,7.566797797010228,9.103697875688434
1177.0,6.085916601101495,8.89291896144768
1178.0,5.325806451612903,9.852045633359559
1179.0,7.151494885916601,10.155763178599528
1180.0,6.363355625491739,9.643509047993707
1181.0,6.329661683713611,9.104012588512981
1182.0,5.271125098347757,8.192604248623132
1183.0,6.445082612116443,9.394571203776554
1184.0,6.781785995279307,10.801455546813532
1185.0,5.3023800157356415,11.962096774193547
1186.0,4.587706530291109,10.336841070023603
1187.0,6.728933910306845,10.650275373721477
1188.0,7.593326402158031,9.369223708366116
1189.0,7.432314263234798,7.623183844741673
1190.0,5.95038215128695,8.143849986886966
1191.0,6.650250084298078,8.186401783372673
1192.0,5.6139822412049,8.349357461316549
1193.0,5.969236821400472,9.317545239968528
1194.0,6.2480330448465775,8.767269866247048
1195.0,7.1938630999213204,7.829425649095201
1196.0,5.859323367427222,8.477261998426435
1197.0,6.101573564122738,7.486467348544452
1198.0,5.767545239968529,8.37462627852085
1199.0,6.051140833988985,7.03933910306845
1200.0,14.212273800157357,8.555940204563335
1201.0,13.754366640440598,8.440912667191188
1202.0,17.149881982690793,9.430763178599527
1203.0,16.190047206923683,9.894531864673485
1204.0,12.921774193548387,10.57016129032258
1205.0,9.584984639016897,10.740168970814132
1206.0,7.616243302986025,10.094573077067174
1207.0,10.823031171555954,9.010189764340039
1208.0,12.228854295455397,9.848240043460343
1209.0,9.005556179985764,8.126136150762429
1210.0,7.052163650668765,8.223052714398111
1211.0,8.399016522423288,9.417741935483871
1212.0,8.123771121351766,9.802572964669737
1213.0,7.712288786482334,10.160752688172042
1214.0,7.128110599078341,10.848771121351767
1215.0,6.848732718894009,12.308256528417818
1216.0,5.978801843317973,10.048079877112135
1217.0,5.633794162826421,7.389861751152074
1218.0,5.083026113671275,6.19615975422427
1219.0,4.765165224232888,6.300826121164437
1220.0,6.0664830841856805,5.952301337529503
1221.0,6.057627102768723,6.462037765538945
1222.0,5.900420553744707,6.4879425649095195
1223.0,5.985290922033644,7.315342250196696
1224.0,7.435997152598254,7.977655389457119
1225.0,7.547974972837285,8.165381589299765
1226.0,6.45102281667978,7.698819826907946
1227.0,17.228302611367127,8.820430107526882
1228.0,12.473963133640552,10.523079877112135
1229.0,9.20552995391705,8.232910906298002
1230.0,7.890864898280319,7.721776066839009
1231.0,7.510351803978869,7.808871904387247
1232.0,7.0912536060844475,6.880373534150088
1233.0,5.447777340676632,6.264457120377655
1234.0,5.861959087332809,6.547246262785208
1235.0,6.1099724626278515,6.845220298977183
1236.0,8.04071971825709,8.297130118766624
1237.0,6.9613512045258705,8.15446592484358
1238.0,6.2623730845603385,8.464388745269941
1239.0,6.0236334344910265,9.799857629912704
1240.0,7.283335206623955,9.31369750103031
1241.0,8.15326514555468,7.894099134539733
1242.0,7.219748229740362,7.857513768686074
1243.0,7.056451612903226,6.730645161290322
1244.0,6.715783410138249,6.690207373271889
1245.0,5.763133640552995,7.6680875576036875
1246.0,5.883986175115207,7.611866359447005
1247.0,6.750460829493088,8.195852534562212
1248.0,5.780875576036866,8.393087557603685
1249.0,4.671774193548387,7.893548387096773
1250.0,4.862273800157356,8.162883556254917
1251.0,5.76941384736428,8.366050354051929
1252.0,5.485110149488592,8.390283241542093
1253.0,5.799409913453973,6.94836742722266
1254.0,6.285995279307631,6.813296616837136
1255.0,5.900275373721479,8.122147915027536
1256.0,6.481451612903226,9.071774193548388
1257.0,5.194354838709677,9.729032258064516
1258.0,6.603648233486943,9.677419354838708
1259.0,6.39164512382451,7.902950432730133
1260.0,5.610338690944513,8.445023603461841
1261.0,5.826943539020643,8.216463414634147
1262.0,7.404600801768386,8.36750590086546
1263.0,7.322116069086958,7.754029448128582
1264.0,7.9419392304522125,8.43562998763628
1265.0,6.637039638829568,8.894054175564797
1266.0,6.745319583380165,9.327416544902775
1267.0,7.320643662657824,8.280240530515904
1268.0,6.161605035405192,7.875845790715971
1269.0,8.231077891424075,7.858457907159716
1270.0,6.371243115656963,7.995712037765538
1271.0,6.801671911880408,7.630428796223446
1272.0,7.905885879135289,8.822299651567944
1273.0,6.903375669701397,8.858514105878385
1274.0,5.312270053576112,9.850578846802293
1275.0,6.415222359596868,9.399955041025063
1276.0,6.307048328016069,10.232518019614794
1277.0,5.860359801488833,9.175475599669149
1278.0,5.880583126550869,9.748221670802316
1279.0,17.693664891363554,8.502454659161977
1280.0,17.661022153823097,8.224019188259943
1281.0,19.858260274999065,9.7387218538084
1282.0,15.543243040725338,10.54395770109775
1283.0,11.882911842943315,9.738511108613391
1284.0,8.523595968678581,9.524645011427072
1285.0,10.098741148701809,9.936900078678207
1286.0,10.280721966205837,10.857757296466975
1287.0,11.08195084485407,12.411789554531492
1288.0,13.06333970252145,11.235015548312166
1289.0,16.05413247911281,10.226772132928701
1290.0,10.997227529878984,10.818628001948221
1291.0,10.421040800269754,10.535734891911131
1292.0,12.193469708890637,11.366561762391818
1293.0,22.955981561056305,10.113822146906333
1294.0,23.71200224506676,10.069499586435072
1295.0,15.4078795647049,8.942548770400855
1296.0,10.805090451117202,7.162737799834574
1297.0,8.288029096526342,6.248304383788255
1298.0,6.461301562324379,7.04516129032258
1299.0,6.6658536585365855,8.610700236034617
1300.0,6.2511014948859165,8.332336742722266
1301.0,7.126888276947286,6.992997639653816
1302.0,6.978461841070024,8.026966955153423
1303.0,7.873236296879098,7.904900528267955
1304.0,6.926090255142182,7.62250758682702
1305.0,5.948932224345285,7.616898954703832
1306.0,4.835225356861864,6.6126784309317745
1307.0,5.077329436888839,6.800044958974935
1308.0,5.269060732081975,6.484517253006631
1309.0,5.30684500393391,6.118509047993706
1310.0,5.746970889063729,6.871754523996853
1311.0,7.353265145554682,7.138945712037765
1312.0,6.532022029897718,7.933202202989772
1313.0,5.87309205350118,7.117899291896144
1314.0,5.391935483870967,6.394354838709678
1315.0,4.235483870967742,5.525806451612903
1316.0,3.640322580645161,5.625
1317.0,4.373387096774193,5.240322580645161
1318.0,3.792741935483871,5.486290322580645
1319.0,4.284284028324154,5.622501966955153
1320.0,4.426416207710464,6.824960660896931
1321.0,4.172771792854405,7.779219370977828
1322.0,5.7069504125562345,9.448077427424398
1323.0,9.007104238536181,9.547425810486391
1324.0,15.340688232564705,9.942871048437532
1325.0,13.999818002611079,9.93117054726024
1326.0,19.324143906185604,10.541398786107676
1327.0,20.37246731107864,10.369076655052265
1328.0,15.360023978119965,10.01155445655839
1329.0,11.171200029972649,9.473597841969202
1330.0,10.559716758457906,9.403619197482296
1331.0,17.460503540519277,9.078048780487805
1332.0,15.743627065302912,9.62360346184107
1333.0,12.034520062942565,8.546007081038553
1334.0,9.598524783634932,8.509047993705742
1335.0,8.237237991486614,9.079730779317718
1336.0,7.803296415098146,8.56526861546531
1337.0,6.166531501543303,8.653152459918786
1338.0,6.397191793257883,9.31595467213091
1339.0,5.983092543438727,8.73613102082811
1340.0,7.964815855531827,7.3722818553070315
1341.0,8.084728934846952,6.728204263609456
1342.0,6.973062080851223,6.998950957251508
1343.0,6.299276909819789,6.260293731969577
1344.0,7.099921321793863,5.37765538945712
1345.0,6.655546813532652,5.996538158929976
1346.0,7.143981117230528,6.628166797797009
1347.0,7.077970102281668,7.067033831628638
1348.0,5.650708103855232,7.684579071597168
1349.0,6.582332059495711,8.7326083698625
1350.0,6.638402457757296,8.917602375332507
1351.0,5.445607349639608,9.649134107434659
1352.0,5.229658513529481,8.651986408556038
1353.0,4.275018084459469,8.877291394679277
1354.0,4.545189533781194,9.186725574451774
1355.0,4.319644334160463,9.673614557485525
1356.0,3.864496459480724,9.479779701022817
1357.0,4.003029110936271,7.751042486231313
1358.0,5.346380802517702,7.367230527143981
1359.0,5.690932336742722,7.194905586152635
1360.0,5.01038552321007,7.305114083398898
1361.0,5.920692368214004,7.811959087332808
1362.0,7.499527930763179,7.627380015735641
1363.0,6.010188827694728,7.942328874901652
1364.0,5.111309992132179,7.91014948859166
1365.0,5.053953579858379,8.428914240755311
1366.0,5.389398111723052,8.183634933123525
1367.0,4.873328088119591,8.307946498819827
1368.0,4.917545239968528,7.1052714398111725
1369.0,4.73831628638867,7.05177025963808
1370.0,5.863099921321794,7.24036191974823
1371.0,5.104642014162078,8.086742722265932
1372.0,5.7401652242328876,7.2060778914240755
1373.0,5.228953579858379,7.790538945712038
1374.0,6.966896144767898,7.807769472856019
1375.0,4.933044846577498,6.944610542879622
1376.0,5.260228166797797,6.438394964594807
1377.0,4.515322580645162,5.903225806451613
1378.0,4.839516129032258,6.043548387096774
1379.0,5.390814319433517,7.15088512981904
1380.0,4.711132966168371,8.222521636506688
1381.0,5.224350904799371,8.722187254130604
1382.0,5.76014948859166,9.1205743509048
1383.0,5.70850733321229,7.278339284633541
1384.0,5.324828017510944,6.809429280397023
1385.0,5.44951078294902,6.624148157114325
1386.0,6.355810803411118,9.690291455200974
1387.0,5.796709492972278,10.245224405806624
1388.0,4.652531752276047,9.576458356749466
1389.0,4.323128582668315,10.475719343598964
1390.0,4.962773968753512,11.093908058896258
1391.0,7.314572615949484,10.927817789344147
1392.0,6.075539651798502,10.42590732110795
1393.0,5.315592406544413,9.909727854102362
1394.0,7.527583772115636,9.343534265367467
1395.0,8.09927575702556,9.556444552038572
1396.0,7.369394177812746,8.606845003933909
1397.0,6.904661683713611,8.448210070810386
1398.0,7.301927616050353,7.905153422501967
1399.0,5.806431943351692,7.8355822187254125
1400.0,5.035877261998426,8.159323367427223
1401.0,6.132865010677756,7.985285302161778
1402.0,7.0798078003821505,10.190124948484506
1403.0,6.677748117342924,10.149183245288672
1404.0,5.576374058671462,8.781043235547562
1405.0,9.804552096212207,9.23807275860777
1406.0,8.785916601101494,9.202753737214792
1407.0,11.225444330125683,9.022194314995259
1408.0,8.930188726825234,9.097800540660494
1409.0,7.192916944057778,8.893658334846375
1410.0,6.949172870140612,9.323304383788255
1411.0,7.065715467328371,9.262861869313483
1412.0,6.050806451612903,8.474193548387095
1413.0,5.795967741935484,7.417741935483871
1414.0,6.184205350118017,6.867545239968528
1415.0,6.425570416994493,8.153933910306844
1416.0,6.193430369787569,9.505291109362705
1417.0,6.636723052714398,8.240952006294256
1418.0,7.118292682926829,8.649016522423288
1419.0,5.531136900078678,8.221439811172306
1420.0,6.01904012588513,8.540519276160504
1421.0,6.31164437450826,9.232100708103856
1422.0,5.270692368214004,9.437844217151849
1423.0,5.894433516915814,9.528992918961446
1424.0,5.131145329886477,8.276977258251843
1425.0,6.010497920647409,7.318661721179424
1426.0,6.88959199730246,8.471289947922521
1427.0,5.517101270091041,8.98466149638455
1428.0,5.530324828593908,8.569750103030984
1429.0,5.430369787568844,8.751848937844215
1430.0,5.055861526357199,7.768843430369787
1431.0,4.519354838709678,8.929032258064515
1432.0,4.937037765538945,8.276671911880408
1433.0,4.417309205350118,9.180271439811172
1434.0,5.878009441384736,9.221184107002362
1435.0,7.610778914240755,7.610995279307632
1436.0,8.694099134539732,7.1268686073957515
1437.0,7.925806451612902,7.284677419354839
1438.0,7.008256528417817,7.511367127496159
1439.0,6.7416282642089085,9.335522273425498
1440.0,7.363748079877112,9.043701996927803
1441.0,5.15284178187404,9.471044546851
1442.0,5.88125960061444,9.144393241167435
1443.0,5.153149001536098,10.549462365591397
1444.0,6.510445468509985,9.263440860215052
1445.0,6.158064516129032,8.582258064516129
1446.0,6.266935483870968,9.64274193548387
1447.0,6.484677419354838,8.705645161290322
1448.0,6.3959677419354835,8.368548387096773
1449.0,6.47293217535153,8.619789081885855
1450.0,6.212675765095119,8.904652605459058
1451.0,6.894978716536545,9.542147309810566
1452.0,6.913618390526337,9.561396235550445
1453.0,6.16324113861486,10.150426677964049
1454.0,5.710818253343824,9.280920535011802
1455.0,5.868804091266719,10.510188827694726
1456.0,6.501278520849725,10.277124311565697
1457.0,5.606294256490951,8.33347757671125
1458.0,6.164673485444531,9.181294256490952
1459.0,5.293627065302911,9.70637293469709
1460.0,5.474377130868083,9.62981529354464
1461.0,7.589666928927354,10.252830542130306
1462.0,7.392075980667641,10.502572028024428
1463.0,7.381797235023042,9.747273425499232
1464.0,6.922350230414747,10.425652841781874
1465.0,6.737519201228878,9.418970814132102
1466.0,6.723195084485406,8.082872503840246
1467.0,5.9407159716758455,8.729327301337529
1468.0,5.193273013375295,8.511782061369
1469.0,4.948170731707316,8.911250983477576
1470.0,5.207553107789142,10.37094807238395
1471.0,4.923682140047207,10.109992132179386
1472.0,4.648623131392604,8.86443745082612
1473.0,6.341463414634146,9.123878835562548
1474.0,5.558536585365854,9.597974036191975
1475.0,5.55507474429583,7.809874114870181
1476.0,5.924272226593233,9.311703383162865
1477.0,6.49148308418568,10.56195908733281
1478.0,5.4216168371361135,9.762745869394179
1479.0,5.929077649337287,9.65558716133067
1480.0,5.752442050475095,8.45682583872985
1481.0,4.9432548568661865,7.77066311606044
1482.0,5.313956303334745,7.98076822207428
1483.0,6.197890818858561,9.910132340777501
1484.0,6.054032258064517,12.039516129032258
1485.0,5.208064516129033,12.92258064516129
1486.0,5.079169944925256,12.9918961447679
1487.0,5.18273013375295,12.207238394964595
1488.0,6.1816876475216365,11.04958693941778
1489.0,6.698505114083399,10.382454760031472
1490.0,6.903776553894572,11.0647128245476
1491.0,6.895003933910306,10.047226593233674
1492.0,6.509146341463414,10.770141620771046
1493.0,7.1923485444531865,9.567623918174665
1494.0,5.935208497246263,11.196144767899291
1495.0,7.267210857592447,9.162509834775769
1496.0,6.30558615263572,8.97812745869394
1497.0,5.544767899291896,9.477970102281667
1498.0,5.31447678992919,10.507277734067664
1499.0,6.180841856805665,11.241837136113297
1500.0,7.358497246262785,9.003186467348545
1501.0,6.40521243115657,8.746675845790715
1502.0,7.460267505900866,7.101966955153422
1503.0,6.898347757671125,6.140676632572777
1504.0,7.517309205350118,5.457435090479937
1505.0,7.02741935483871,6.877419354838709
1506.0,6.498003072196621,7.393778801843318
1507.0,6.462062118317036,7.811130156232437
1508.0,8.135869768835937,8.335000561987187
1509.0,8.13083811022442,7.5191131842194
1510.0,8.294451313176726,7.097459817916151
1511.0,9.212509834775766,8.896852871754524
1512.0,7.8753343823760815,8.924429583005507
1513.0,6.890578284815106,9.306136900078677
1514.0,6.536900078678206,11.444315499606608
1515.0,6.268450039339102,11.187883556254917
1516.0,4.9213217938630995,9.603461841070024
1517.0,5.619748229740361,9.612588512981905
1518.0,5.7449645948072385,8.444059795436663
1519.0,5.908250620347394,8.545740281224152
1520.0,5.625614295224838,9.008196655167545
1521.0,6.984178115354354,9.031517682422482
1522.0,6.190072928644918,9.870597550888661
1523.0,7.444023482418446,11.551604833666202
1524.0,5.839575137686861,11.009244689221084
1525.0,5.220338316286389,9.751199842643588
1526.0,4.826298190401259,9.68487411487018
1527.0,6.480487804878049,9.663808025177026
1528.0,6.198151062155783,8.402084972462628
1529.0,4.993646734854445,8.85446498819827
1530.0,4.662981904012589,11.15047206923682
1531.0,6.412313139260425,10.052970102281668
1532.0,6.714398111723053,9.251239181746657
1533.0,10.63729346970889,10.487018095987413
1534.0,9.121951219512196,9.78835562549174
1535.0,8.884343036978755,9.312352478363493
1536.0,8.11880409126672,9.724311565696302
1537.0,6.589299763965381,9.672541306058221
1538.0,6.387490165224233,9.181274586939418
1539.0,5.756845003933911,9.463257277734066
1540.0,5.636487018095988,9.936978756884342
1541.0,6.1611329661683705,10.659244689221085
1542.0,5.204405979543667,9.742761605035405
1543.0,4.498347757671125,9.51685680566483
1544.0,4.255625491738789,8.575767112509835
1545.0,4.824429583005507,8.17230527143981
1546.0,4.381782464846982,7.5955334987593055
1547.0,5.399358974358974,7.745347394540943
1548.0,5.771719219673586,8.494123343218543
1549.0,4.516389563753844,10.365571656248289
1550.0,5.280460714213664,11.363017928832248
1551.0,4.678526469596493,9.462898542579897
1552.0,3.965876138024053,8.461691206773818
1553.0,4.55595144430707,8.301105241467162
1554.0,5.586113296616837,7.115184893784422
1555.0,7.057179386309991,7.050826121164437
1556.0,6.353186467348544,6.2810582218725415
1557.0,6.005330448465774,5.411782061369001
1558.0,5.487553857105391,6.027185193510921
1559.0,4.879496834138848,6.477400621932486
1560.0,5.437997826982878,8.29725656588363
1561.0,5.91072761489756,9.405276339186646
1562.0,6.774954680776868,9.518216454408428
1563.0,6.081409752062781,8.199584417680406
1564.0,6.106165143537291,10.014268998769392
1565.0,5.158117976961408,9.666851257842602
1566.0,4.958829755348244,10.454363830504665
1567.0,5.932375145180023,9.392219287400248
1568.0,8.505300475815819,7.38522254692593
1569.0,7.78047281855307,7.568820950882319
1570.0,6.982683301487393,7.233741710688996
1571.0,6.334303697875688,7.653147128245475
1572.0,5.97215797851902,8.684888752675974
1573.0,11.65819880492771,8.77721780183722
1574.0,9.706351566114524,7.522017634199491
1575.0,7.423150212640268,8.09225389971186
1576.0,6.962243871072298,6.959502244899204
1577.0,6.461571316173991,9.479494960848227
1578.0,5.660818253343823,10.703855232100707
1579.0,7.350865460267505,9.731549960660896
1580.0,8.13888483009254,9.126293507174703
1581.0,13.21661983440111,8.584114495522837
1582.0,28.615548312165153,8.357753549885729
1583.0,23.255453149001536,10.697759544415721
1584.0,20.411597542242703,9.22173579109063
1585.0,15.261866359447005,7.275230414746543
1586.0,11.851804915514592,6.618049155145929
1587.0,8.43026113671275,6.457066052227342
1588.0,7.671660859465737,6.02751020943389
1589.0,7.014862687797384,7.3399647821363
1590.0,7.03531152823049,6.705005432542805
1591.0,6.125105840920161,8.300505788468023
1592.0,5.620771046420142,8.331589299763966
1593.0,6.142800944138473,9.308595594020456
1594.0,14.010955003559252,8.361575062755236
1595.0,18.399832340489304,7.709013337829231
1596.0,16.184996815405942,9.129103443108164
1597.0,15.46749840770297,8.0693904312315
1598.0,11.380798771121352,7.212980030721966
1599.0,14.390322580645162,6.957258064516129
1600.0,19.41140833988985,7.431412273800157
1601.0,14.955704169944925,7.765302911093627
1602.0,11.625590086546026,7.016778127458695
1603.0,11.450295043273012,7.223308418568057
1604.0,10.552163650668763,6.922541306058221
1605.0,11.541148701809599,6.611624704956727
1606.0,9.831864673485445,6.2578284815106215
1607.0,8.817741935483872,7.517741935483871
1608.0,8.458772619984263,8.788217938631
1609.0,9.710261886028999,9.448544453186468
1610.0,8.008199393053838,9.770554681353266
1611.0,6.553194897156345,8.691345397324941
1612.0,7.950387771158817,8.489221085759244
1613.0,7.172046757333932,7.464358772619985
1614.0,6.154051927616051,6.869079464988198
1615.0,12.023131392604249,5.652871754523996
1616.0,8.873485444531864,7.614004720692368
1617.0,6.376435877261998,9.07360346184107
1618.0,4.916443745082612,8.573092053501181
1619.0,7.404720692368214,9.860896931549961
1620.0,7.7678992918961445,11.152871754523996
1621.0,6.656412273800157,11.139142407553106
1622.0,6.230645161290322,10.355645161290322
1623.0,7.04516129032258,11.487096774193548
1624.0,8.371774193548386,11.850000000000001
1625.0,12.759677419354837,11.483064516129033
1626.0,13.41025641025641,10.578618693134821
1627.0,19.02466006980169,9.943282595977324
1628.0,16.687272431214208,11.553841758818155
1629.0,12.13557169947807,11.012807976183272
1630.0,11.246434551548635,10.978807607289118
1631.0,24.74926379678543,11.249263796785433
1632.0,19.31326289760593,11.214718444419466
1633.0,12.925295043273014,11.730861526357199
1634.0,10.713453973249411,9.915027537372147
1635.0,8.541227380015734,10.83249409913454
1636.0,5.988552321007081,10.302321007081037
1637.0,5.462096774193547,11.397580645161288
1638.0,7.193202764976958,10.612941628264208
1639.0,9.011442059121052,11.783585290922034
1640.0,8.972310891311677,11.35552152410925
1641.0,10.682654265482746,10.919765089355963
1642.0,8.77731762074799,10.910027292403374
1643.0,13.368382312678143,11.295259421931334
1644.0,13.90425409890398,10.6152929682434
1645.0,13.854431196917428,10.395511307470393
1646.0,10.124855252274607,9.725765095119932
1647.0,10.255645161290323,8.763709677419353
1648.0,8.675,7.729838709677418
1649.0,8.003225806451614,7.4967741935483865
1650.0,6.400806451612903,7.041935483870968
1651.0,5.347698662470496,7.251455546813532
1652.0,5.979091266719118,10.40153422501967
1653.0,10.33477576711251,10.125688434303697
1654.0,8.756827207672998,9.09790566108426
1655.0,7.549371968427646,7.885749529716923
1656.0,7.549430280043879,8.699129682246344
1657.0,6.59937092287009,10.352564447732142
1658.0,6.3696303866907495,12.167312908366466
1659.0,6.3591623515635005,11.373210985673246
1660.0,5.482336742722266,12.502635719905584
1661.0,9.871391105616125,11.653429995129443
1662.0,9.612084597804502,12.206880596455733
1663.0,8.27795417931138,10.51262597879435
1664.0,7.523172604997939,9.291521486643436
1665.0,6.16638567307332,10.320819751976321
1666.0,5.739387808624629,8.851504252369713
1667.0,5.515342250196696,7.845790715971676
1668.0,6.636506687647522,7.69315499606609
1669.0,4.795436664044059,9.531077891424076
1670.0,4.7073170731707314,9.845948072383948
1671.0,4.663571990558616,8.892525570416993
1672.0,5.444453186467348,9.094256490952006
1673.0,5.7201022816679785,7.2247836349331225
1674.0,5.210483870967742,7.108064516129032
1675.0,4.285483870967742,8.21532258064516
1676.0,5.164516129032258,7.773387096774194
1677.0,6.762352478363494,7.929878048780487
1678.0,5.9271833202202995,8.245653029110937
1679.0,6.350432730133752,8.703422501966955
1680.0,7.858177489963484,9.825387843208457
1681.0,8.851669390143032,8.92317779257197
1682.0,21.595307551090396,10.84671871532611
1683.0,16.095686820391776,13.041691379692953
1684.0,11.477033024672679,10.339492424700921
1685.0,9.461428009441384,13.325778352253568
1686.0,16.457115694428836,14.46012419916826
1687.0,25.03959855381964,10.577892360720842
1688.0,21.100670638042786,8.823161365254204
1689.0,18.943018245850663,8.313468959574388
1690.0,14.369896219699523,9.418946461354015
1691.0,9.432951182046382,9.829519313626317
1692.0,8.896813532651455,9.603776553894573
1693.0,8.562096774193549,6.877419354838709
1694.0,6.17016129032258,6.654838709677419
1695.0,6.239004720692368,6.2264358772619985
1696.0,5.731589299763966,5.652006294256491
1697.0,5.092407553107789,6.63729346970889
1698.0,5.8671715184893785,7.869453186467348
1699.0,6.092053501180173,8.59158143194335
1700.0,6.36191974822974,9.477222659323367
1701.0,5.587096774193548,9.337903225806452
1702.0,5.493548387096774,9.74516129032258
1703.0,8.542722265932337,10.36787962234461
1704.0,8.337352478363492,8.648052714398112
1705.0,6.91941384736428,10.717722265932338
1706.0,5.698170731707317,9.782120377655389
1707.0,5.562391817466562,10.238237608182533
1708.0,4.875216365066876,8.92084972462628
1709.0,5.0041699449252555,7.263650668764752
1710.0,13.349805177775279,6.032091341650744
1711.0,13.148545389831778,5.89448784234386
1712.0,10.284007717957362,5.601487392754112
1713.0,8.257896856618336,5.786109550035592
1714.0,7.360803267018845,5.201925742759732
1715.0,8.590232662695291,7.371162564160204
1716.0,7.8582949308755765,7.668586789554531
1717.0,7.681451612903226,7.023387096774194
1718.0,6.644354838709678,8.846774193548388
1719.0,5.428639371381307,8.000992555831266
1720.0,4.904258710080897,7.575083217333414
1721.0,5.720697411688756,7.235259940688737
1722.0,6.3271071637515375,8.172960418810142
1723.0,6.969601968972543,7.194141499727652
1724.0,7.286703383162864,7.082926829268292
1725.0,5.879464988198269,7.386309992132179
1726.0,6.5394520769029025,5.9370977828884985
1727.0,7.060048619096612,4.711271157376586
1728.0,7.663167503883475,5.4632870342351065
1729.0,7.084337489156528,5.917333918376405
1730.0,5.471564889346164,7.782162238495834
1731.0,4.546026750590086,7.367427222659323
1732.0,4.576868607395751,7.805350118017309
1733.0,4.3232100708103856,7.944295830055074
1734.0,5.527143981117231,8.44972462627852
1735.0,5.281667977970102,8.663808025177026
1736.0,4.32258064516129,10.233870967741936
1737.0,5.337096774193548,9.554032258064517
1738.0,5.387903225806451,8.234677419354838
1739.0,7.966129032258065,7.27741935483871
1740.0,10.30241935483871,7.4564516129032254
1741.0,13.06676669167292,8.149474868717178
1742.0,18.554508444184215,11.56063436590855
1743.0,15.585122042705798,11.131635042907067
1744.0,10.179254569739996,11.398075585969664
1745.0,11.831562768740966,10.15589263169451
1746.0,10.223760818253343,10.233674272226592
1747.0,9.113847364280094,10.291502753737214
1748.0,6.630506537784273,10.652439024390244
1749.0,6.495839421527856,9.483772619984265
1750.0,9.371998051777753,8.568019182495972
1751.0,13.194897156344837,8.087670001123975
1752.0,10.237102394065415,7.651230751938855
1753.0,8.37776778689446,9.030684500393392
1754.0,7.403124648758009,8.4441384736428
1755.0,10.274526994117867,9.345341126222323
1756.0,9.235124199168258,9.40779663557004
1757.0,7.73149563523285,8.260228166797797
1758.0,6.971747967479675,7.360809823536023
1759.0,6.995148177288224,6.776048106103181
1760.0,6.554793750702483,6.969289561736454
1761.0,6.186051478026301,6.4553764881852995
1762.0,6.669446629950171,6.222542314753172
1763.0,5.969892473118279,6.437313643607901
1764.0,7.684946236559139,7.595368072787427
1765.0,7.214752163650669,7.155074744295829
1766.0,5.628343823760817,6.125118017309205
1767.0,5.8086152635719905,5.822974036191974
1768.0,6.780114083398898,6.210680566483084
1769.0,6.310621557828481,6.0492918961447675
1770.0,6.801573564122738,6.0257474429583
1771.0,6.01852871754524,6.788276947285602
1772.0,6.486290322580645,7.382258064516129
1773.0,5.210339123242349,8.018093465674111
1774.0,6.008808428655007,8.897726905929108
1775.0,5.215647650186467,9.476967353939798
1776.0,5.200622024643121,9.371107457915135
1777.0,5.868033746576552,8.048149735101962
1778.0,5.498473921616292,7.9285413687916755
1779.0,4.918395104002482,8.730596412169245
1780.0,9.225139037372584,8.70835897127592
1781.0,13.935375220111649,8.347577835225355
1782.0,10.294338915739388,9.006661421452923
1783.0,7.942407553107788,9.43505114083399
1784.0,8.13225806451613,9.441129032258065
1785.0,6.747777340676632,7.739555468135327
1786.0,6.176711250983477,7.650019669551535
1787.0,6.165991345397325,8.013611329661684
1788.0,6.08985051140834,7.633687385260949
1789.0,5.23524783634933,7.845069499082087
1790.0,4.746498819826908,7.527019407290847
1791.0,6.098287812371211,6.8609943426623206
1792.0,5.3883256528417816,7.927035330261137
1793.0,7.217972350230415,7.839093701996927
1794.0,14.52617736315612,6.4828434678356
1795.0,12.063874454944479,6.831237697524086
1796.0,9.160341933178284,7.985342725724315
1797.0,8.145538350101685,7.174078172898
1798.0,10.386283093600166,7.880799155386094
1799.0,10.313125811158855,8.95456165479769
1800.0,8.806101931987062,8.26392167147478
1801.0,7.759620596205962,9.237625666579246
1802.0,7.159559402045634,7.495515342250197
1803.0,7.261841070023603,6.9645161290322575
1804.0,5.924704956726987,7.11648308418568
1805.0,6.192092840283242,7.414260424862313
1806.0,6.928186467348544,7.533575924468922
1807.0,7.60037372147915,7.487962234461055
1808.0,13.433654602675059,7.3552714398111725
1809.0,13.452714398111722,8.255861526357199
1810.0,13.38300550747443,7.487490165224234
1811.0,10.607081038552321,7.812588512981904
1812.0,8.964516129032258,8.677419354838708
1813.0,7.412667191188041,8.691502753737215
1814.0,6.356717620171594,8.745828181784123
1815.0,7.297516953280131,10.029582068862162
1816.0,6.1031939605110335,9.403018807837846
1817.0,5.7783753094532,8.849762092090966
1818.0,6.026795837260039,8.040065939829905
1819.0,5.775533095281325,9.60697613427747
1820.0,6.791149710504549,8.855573039601364
1821.0,5.6504135649296945,9.060752688172043
1822.0,5.291129032258064,7.995967741935484
1823.0,4.533339889850511,6.561998426435877
1824.0,5.080782848151062,6.44390243902439
1825.0,5.639988198269079,5.696144767899291
1826.0,6.321203776553895,5.98920141620771
1827.0,5.945279307631786,6.069197482297403
1828.0,5.375,6.912096774193548
1829.0,5.151612903225806,8.164516129032258
1830.0,4.879405979543666,9.099154209284027
1831.0,4.237686860739576,11.05320613690008
1832.0,4.786211644374508,9.933693941778127
1833.0,5.309638080251769,8.99789535798584
1834.0,13.098977183320219,10.202202989771834
1835.0,13.549095200629425,10.002360346184107
1836.0,20.22234461054288,9.729425649095202
1837.0,15.010070810385523,12.176278520849724
1838.0,11.26955153422502,11.403461841070023
1839.0,8.025019669551535,11.070338316286389
1840.0,7.1720692368214,10.357671125098348
1841.0,6.570377655389457,10.62462627852085
1842.0,8.148760818253344,10.705232100708104
1843.0,6.944717464544372,10.581958482115837
1844.0,6.068739534789888,9.120640924771532
1845.0,7.106912010098477,8.349375761924936
1846.0,7.878160961776226,7.121639100474663
1847.0,6.853822809763014,8.294533161566992
1848.0,6.493162489228579,8.661458918736653
1849.0,6.574275973174478,8.309486343711363
1850.0,5.982376081825334,7.721793863099921
1851.0,5.691424075531078,7.156884343036978
1852.0,6.169079464988199,7.39921321793863
1853.0,5.889024390243902,6.779071597167585
1854.0,5.715322580645161,6.641935483870967
1855.0,5.479032258064516,7.2185483870967735
1856.0,6.362019969278034,7.226728110599078
1857.0,4.836546963395901,6.3971170057322695
1858.0,5.333999288149563,7.291300438350005
1859.0,5.893209321494137,8.249682477239519
1860.0,5.649024015585778,8.25750252894234
1861.0,4.68273013375295,8.87690794649882
1862.0,4.944354838709677,9.044354838709676
1863.0,5.513709677419355,9.604032258064516
1864.0,4.666129032258064,9.016129032258064
1865.0,6.129838709677419,8.336290322580645
1866.0,4.9544453186467345,8.90047206923682
1867.0,5.271577498033045,8.535719905586152
1868.0,4.61522423288749,8.414634146341463
1869.0,4.712057435090481,7.9482887490165215
1870.0,4.866915814319433,8.714870180959874
1871.0,6.849901652242329,8.849960660896931
1872.0,9.654464988198269,9.340715971675845
1873.0,8.942958300550746,9.167938630999213
1874.0,7.052439024390244,9.49506294256491
1875.0,7.396754523996853,8.535719905586152
1876.0,5.862155782848151,8.641974822974035
1877.0,4.72258064516129,9.198642800944137
1878.0,4.359677419354838,9.202950432730134
1879.0,4.329032258064516,8.753894571203777
1880.0,5.98119590873328,10.87537372147915
1881.0,6.06573564122738,11.502596380802517
1882.0,4.921931549960661,10.226514555468135
1883.0,5.214260424862314,10.44087332808812
1884.0,5.744745419804428,10.800044958974937
1885.0,7.123434865685062,11.11567944250871
1886.0,6.096951147462555,8.8841626246819
1887.0,5.826209641394535,8.323119864661956
1888.0,6.502404584662649,9.925918704950963
1889.0,6.312262200165426,9.442452440033085
1890.0,7.496856906534326,10.897435897435898
1891.0,5.756451612903225,11.235483870967741
1892.0,4.983064516129032,10.782258064516128
1893.0,5.176612903225806,10.766935483870967
1894.0,5.1862903225806445,10.308870967741935
1895.0,5.6114439324116745,10.522465437788018
1896.0,5.075883256528417,9.476958525345623
1897.0,5.062941628264209,9.824769585253456
1898.0,6.00526113671275,7.83536866359447
1899.0,8.015130568356374,7.565668202764977
1900.0,7.173387096774194,6.821774193548386
1901.0,6.7741345397324935,6.370161290322581
1902.0,11.099567269866245,6.04032258064516
1903.0,8.497501966955152,5.466266719118804
1904.0,8.092623918174665,6.113788355625491
1905.0,9.130763178599528,5.86443745082612
1906.0,8.000865460267505,5.428678206136899
1907.0,5.3955940204563335,6.013532651455547
1908.0,5.647364280094414,5.572462627852085
1909.0,4.737293469708891,5.915578284815107
1910.0,5.1356018882769465,6.608851298190402
1911.0,6.392741935483871,7.068548387096774
1912.0,6.90552995391705,7.422081413210446
1913.0,5.864516129032258,8.507027649769585
1914.0,8.369728560188827,7.916269529054738
1915.0,19.39287119253681,10.514010340564234
1916.0,25.48533213442733,13.168315162414297
1917.0,45.73114532988647,12.063036229440634
1918.0,27.156323924186623,10.152128624490619
1919.0,16.301608067522107,9.679132762284649
1920.0,14.130307838283612,7.967875244072342
1921.0,15.895096596448765,7.222969505442562
1922.0,15.810067499453261,7.934065397882571
1923.0,11.796823770402531,7.358282950528572
1924.0,10.692274985122587,9.007622985885844
1925.0,8.732063242291408,8.352328500243527
1926.0,7.222944063542018,7.1122625604136225
1927.0,6.392446892210858,6.9025963808025175
1928.0,6.309047993705743,6.4379228953579855
1929.0,5.292997639653816,7.340519276160503
1930.0,6.726357199055861,7.713532651455546
1931.0,6.851888276947285,8.148701809598741
1932.0,5.872285601888277,9.397639653815894
1933.0,6.202675059008655,8.331077891424075
1934.0,7.76522423288749,6.921715184893785
1935.0,6.603225806451613,6.6338709677419345
1936.0,6.195967741935483,7.154032258064516
1937.0,5.483064516129033,7.226612903225806
1938.0,4.801514555468135,6.845318646734855
1939.0,5.538375295043274,6.668292682926829
1940.0,6.241365066876475,6.288985051140834
1941.0,6.513749016522423,6.6457907159716765
1942.0,6.560503540519276,7.345476003147128
1943.0,5.599685287175452,6.910031471282455
1944.0,5.4326514555468135,6.628186467348544
1945.0,6.5147128245476,5.644335169158143
1946.0,6.6322580645161295,5.805645161290323
1947.0,5.992545239968528,6.512175452399685
1948.0,5.363847364280094,7.884933123524783
1949.0,5.743568056648309,7.427773406766326
1950.0,6.249213217938631,7.741935483870967
1951.0,5.364122738001573,8.612903225806452
1952.0,4.861054287962235,8.003933910306845
1953.0,4.23808025177026,8.33147128245476
1954.0,5.196871028263633,7.110691157780064
1955.0,5.508427646311203,7.336777522241723
1956.0,5.377600919929794,6.717179083701507
1957.0,5.353473945409429,5.949069478908188
1958.0,6.166253101736972,7.737841191066997
1959.0,6.403225806451612,8.61209677419355
1960.0,6.27956333595594,8.375845790715971
1961.0,7.67486231313926,9.71372934697089
1962.0,7.158398898505114,8.359284028324154
1963.0,5.4836733355812814,8.720732643962384
1964.0,5.313937282229965,8.866606721366752
1965.0,5.553900191075644,8.469101944475664
1966.0,5.690659772957177,7.736163875463639
1967.0,4.855007305833427,7.949533550635045
1968.0,6.065546438874527,6.798958450413997
1969.0,5.78147128245476,7.710267505900865
1970.0,7.605920535011801,7.979838709677419
1971.0,7.676673785171031,8.557027649769585
1972.0,6.6172117942377575,8.087670001123975
1973.0,6.050541380989847,9.880184331797235
1974.0,5.08067830412441,9.30041817610661
1975.0,4.7315271929748715,7.3244813146465395
1976.0,5.609465593415239,5.7094756803647435
1977.0,7.612757973733584,5.224132017995117
1978.0,7.632106760273558,4.90671589098025
1979.0,7.067028211756772,5.016278895507849
1980.0,6.699053051590424,5.555897118879022
1981.0,7.360413622569405,8.206174365891124
1982.0,6.817500280993594,7.405840920160355
1983.0,6.292857142857143,7.22542242703533
1984.0,5.055645161290323,7.502419354838709
1985.0,9.187903225806451,8.853225806451611
1986.0,8.194354838709677,8.680645161290322
1987.0,8.484677419354838,7.576612903225806
1988.0,6.780645161290322,8.333870967741936
1989.0,5.804838709677419,7.371774193548387
1990.0,5.891129032258064,7.975
1991.0,5.590322580645161,8.287903225806451
1992.0,5.209677419354838,7.833064516129031
1993.0,7.7821812596006135,8.194930875576036
1994.0,11.44500768049155,9.36363287250384
1995.0,11.854761904761904,9.923348694316436
1996.0,9.982711400846727,11.582996141021319
1997.0,7.5824847326814275,10.83424000599453
1998.0,6.155912105204001,10.040161477651644
1999.0,5.88463808025177,10.129681353265145
2000.0,6.386270653029111,8.432179386309992
2001.0,6.457258064516129,8.779032258064516
2002.0,5.300000000000001,7.673387096774194
2003.0,4.829032258064516,8.952419354838709
2004.0,4.534933123524784,8.264083398898505
2005.0,5.728894571203776,9.019197482297404
2006.0,5.628579858379228,9.735700236034617
2007.0,6.019964594807238,8.977340676632572
2008.0,6.100708103855232,9.175767112509835
2009.0,6.5682140047206925,8.5933910306845
2010.0,5.482061369000787,7.327616050354052
2011.0,5.425531077891424,8.205507474429584
2012.0,5.15241935483871,8.512903225806452
2013.0,6.503225806451613,8.311290322580646
2014.0,8.09939024390244,8.26894177812746
2015.0,7.909929376943539,10.093245850661273
2016.0,7.481174365891125,10.022970289610729
2017.0,6.594275223858229,10.5217919898093
2018.0,6.426914286867079,9.814307905574625
2019.0,6.993944948311588,8.529419885124055
2020.0,6.806342673848574,7.597966470979846
2021.0,6.012848756279126,7.858227924711009
2022.0,6.359925558312655,7.533126550868486
2023.0,7.615360090022505,8.56539759939985
2024.0,5.9002744588586165,7.627201160046109
2025.0,7.070221714836373,7.35328952011522
2026.0,7.468463391980398,7.944175482023816
2027.0,8.480641066189893,8.892345037478883
2028.0,9.259825409314,9.0752688172043
2029.0,8.321044546850999,7.98091116855869
2030.0,10.461147952493349,9.188752763103668
2031.0,10.76982878123712,9.265707541868046
2032.0,10.243452849275036,9.334569705144055
2033.0,8.741081263347196,8.891989809299014
2034.0,8.253029110936271,9.741463414634145
2035.0,7.228717545239968,8.007946498819827
2036.0,7.747010228166798,7.531117230527144
2037.0,6.800806451612903,8.155645161290323
2038.0,6.611290322580645,9.373387096774193
2039.0,8.719590873328087,8.092879622344611
2040.0,8.73808025177026,9.683575924468922
2041.0,7.557730133752951,9.12025963808025
2042.0,9.246616837136113,8.685700236034616
2043.0,9.428796223446106,8.516129032258064
2044.0,7.96066089693155,8.662470495672697
2045.0,8.201573564122738,10.887332808811959
2046.0,6.977576711250983,9.370889063729347
2047.0,6.437490165224233,9.494020456333594
2048.0,5.897738001573565,9.168332022029897
2049.0,6.127616050354051,9.868686073957512
2050.0,8.752402495223109,10.315257015473382
2051.0,7.140648533213443,8.794577760293732
2052.0,6.530808137574463,7.62349855756622
2053.0,5.318826570754187,9.308051403094677
2054.0,4.647060807013601,9.052216102806188
2055.0,5.509244689221086,8.157828481510622
2056.0,7.297895357985838,7.574193548387097
2057.0,6.95228166797797,8.263670338316288
2058.0,5.809205350118017,8.871754523996852
2059.0,6.917958300550747,8.673937844217152
2060.0,6.106425386834513,7.288323347253325
2061.0,6.637477052189876,6.447387480078275
2062.0,7.135103592971413,6.603080050031269
2063.0,7.27319695777603,5.935007766951118
2064.0,6.889784946236558,4.533829611248966
2065.0,6.804032258064515,4.441935483870967
2066.0,7.220967741935484,4.787903225806452
2067.0,7.049193548387096,4.645161290322581
2068.0,7.3032258064516125,4.841935483870968
2069.0,6.151789929189615,6.6981904012588505
2070.0,7.161782061369001,7.200708103855232
2071.0,6.82564909520063,7.56890243902439
2072.0,7.713208572177888,7.815115582031396
2073.0,10.809574388370612,10.900850473942526
2074.0,9.142710089543293,9.792518077254506
2075.0,7.949984077029709,10.12851710314338
2076.0,6.734266232063242,9.95700048705556
2077.0,5.2421715184893785,8.424429583005507
2078.0,4.95483870967742,9.255645161290321
2079.0,4.848387096774193,9.223387096774193
2080.0,5.230645161290322,8.54758064516129
2081.0,5.441935483870967,8.865322580645161
2082.0,10.878363493312353,9.973210070810385
2083.0,9.752734067663257,8.598642800944138
2084.0,8.127576711250985,7.622305271439811
2085.0,7.056530291109363,8.095830055074744
2086.0,7.38552321007081,7.43501180173092
2087.0,6.777812745869394,10.250550747442958
2088.0,13.367741935483872,10.491129032258064
2089.0,12.437903225806451,10.233870967741936
2090.0,11.920030007501875,10.188334583645911
2091.0,8.190679834592794,10.195327795363475
2092.0,8.157702230435657,9.696798437414232
2093.0,7.199386127019559,9.926438164419153
2094.0,6.126305966735586,9.655557791886995
2095.0,6.778756884343037,8.83273013375295
2096.0,5.8964594807238395,9.997090923762835
2097.0,6.327694728560188,10.616012023643808
2098.0,6.966129032258064,10.2020264681555
2099.0,6.869354838709677,10.471980976013235
2100.0,6.359323367427223,10.065622667392926
2101.0,7.781943351691581,10.090145554681353
2102.0,7.074689033756697,9.890944513131767
2103.0,6.044967404743171,9.641478400959125
2104.0,6.375857030459705,10.111573189464615
2105.0,6.312389944175939,10.725675321269343
2106.0,6.182158780113147,9.957644899029635
2107.0,6.109512569780076,8.717301712187627
2108.0,6.396650556367314,9.21718931475029
2109.0,6.765988535461391,9.322205987036828
2110.0,6.177737814244502,9.98025551684088
2111.0,5.671087632535311,9.688003446854744
2112.0,5.633359559402045,10.789929189614476
2113.0,5.225806451612902,10.464201416207711
2114.0,4.990558615263572,8.25177025963808
2115.0,5.375688434303697,9.367033831628639
2116.0,6.053304484657749,8.673682140047205
2117.0,5.290224232887489,9.72393784421715
2118.0,4.693941778127458,10.136900078678206
2119.0,5.277734067663257,9.476003147128246
2120.0,7.049252557041699,9.355940204563336
2121.0,6.9523210070810375,10.071125098347757
2122.0,9.467112509834775,10.048387096774194
2123.0,7.634815106215578,9.78328088119591
2124.0,9.362096774193548,10.686290322580646
2125.0,8.282258064516128,10.161290322580644
2126.0,8.417741935483871,10.48225806451613
2127.0,12.227065302911093,11.197049567269866
2128.0,9.48263178599528,11.612863886703384
2129.0,6.40302911093627,11.361309992132178
2130.0,6.503933910306845,10.893154996066091
2131.0,5.927773406766326,9.672383949645948
2132.0,5.120298977183319,9.393391030684501
2133.0,5.985465714458633,10.168119187395348
2134.0,6.199813895781638,9.614350703060381
2135.0,5.56110875748956,8.768465674110836
2136.0,6.3684969436543,7.620454316205693
2137.0,5.324423530835805,7.639810163610321
2138.0,5.700177025963807,8.339673485444532
2139.0,4.915814319433517,9.700078678206136
2140.0,5.6937844217151845,10.398426435877262
2141.0,5.23524783634933,10.513139260424861
2142.0,5.658064516129032,10.17741935483871
2143.0,4.962903225806452,9.44516129032258
2144.0,5.316935483870968,10.15806451612903
2145.0,4.95483870967742,11.80483870967742
2146.0,4.954661683713612,10.214575137686861
2147.0,5.599815480873703,9.078658536585365
2148.0,6.607411674347158,8.024095200629425
2149.0,6.574112996890337,8.897226593233675
2150.0,5.095927466187104,9.342564909520062
2151.0,3.951976321606534,9.202202989771834
2152.0,4.559244689221086,8.988198269079465
2153.0,4.26168371361133,9.76144767899292
2154.0,3.896774193548387,10.56774193548387
2155.0,4.617626728110599,8.835407066052227
2156.0,4.4402551421827585,9.621853808399834
2157.0,4.4903085309654935,8.056107864074033
2158.0,4.860781724176688,8.416950470195946
2159.0,4.663032482859391,8.368850923532277
2160.0,5.023528530216177,8.787344048555692
2161.0,5.704132479112809,8.884230639541418
2162.0,5.233262148289686,7.7351916376306615
2163.0,4.18193398523847,7.3506800044958975
2164.0,3.932823798284066,8.09666179611105
2165.0,5.582848151062156,9.346026750590086
2166.0,6.005664830841857,9.766168371361132
2167.0,5.919669551534224,9.460739575137687
2168.0,6.495397324940991,11.27513768686074
2169.0,6.2588709677419345,11.611290322580645
2170.0,5.594354838709677,11.493548387096773
2171.0,4.46852871754524,10.215637293469708
2172.0,5.667597692105953,9.655764115244839
2173.0,6.27166273275636,8.572610617811247
2174.0,7.2721216889588245,8.10807950245401
2175.0,6.768318908995541,9.329039751227004
2176.0,5.216968266456858,10.688123337454572
2177.0,4.924075531077891,10.590912667191187
2178.0,5.486585365853658,10.036447678992918
2179.0,5.229445318646734,10.091876475216363
2180.0,4.308482259937806,11.302409051740288
2181.0,5.424264733430745,10.43908808212506
2182.0,6.7911646247798885,8.638092428159304
2183.0,7.297598441422203,8.86380427859578
2184.0,5.489554531490016,8.592012288786481
2185.0,5.99722911497105,10.288709677419355
2186.0,4.8171629445823,10.111290322580645
2187.0,5.362613730355665,9.717741935483872
2188.0,4.362758478081059,10.376612903225807
2189.0,4.273934313784825,11.284539732494098
2190.0,4.249154209284029,11.252025963808025
2191.0,4.258044846577498,10.356254917387883
2192.0,4.80684500393391,8.628933910306845
2193.0,5.63729346970889,9.298741148701808
2194.0,4.841070023603462,9.213099921321792
2195.0,4.226986624704957,9.108123524783634
2196.0,4.109461054287962,8.517982653328836
2197.0,4.832553107789142,7.52713648795474
2198.0,4.672900977857704,8.25972799820164
2199.0,4.662965044396987,8.248668090367538
2200.0,5.111576936045858,7.681218388220747
2201.0,4.801564197669626,8.246523172604999
2202.0,4.778614514255741,9.191495260574724
2203.0,3.790228916114046,9.697514143344197
2204.0,4.297789517065677,9.670236221947473
2205.0,4.692443145629612,8.319392304522122
2206.0,4.1449926941665725,8.921216889588251
2207.0,5.285714285714285,10.118279569892472
2208.0,5.370967741935484,9.372580645161289
2209.0,4.233870967741935,9.292741935483871
2210.0,5.377227342549923,9.596850998463902
2211.0,4.908666779064104,9.567308268704807
2212.0,6.596672099209472,9.375992844029824
2213.0,7.198739275411187,9.115819002660071
2214.0,9.677595444157205,9.544603049717132
2215.0,7.831117230527144,8.95712037765539
2216.0,9.186290322580644,10.247324940991344
2217.0,18.811388670338317,12.137332808811959
2218.0,14.245767299838896,10.82915027537372
2219.0,10.79003034730808,11.01753212693417
2220.0,9.376919186242553,10.269977707841594
2221.0,9.57958862537934,9.956359821662732
2222.0,9.102618860289985,10.922082349855756
2223.0,6.35745382338616,8.765879884605297
2224.0,5.39362706530291,8.989929189614477
2225.0,4.788709677419355,8.212903225806452
2226.0,6.05810291858679,7.980721966205837
2227.0,5.844694552759069,8.204566938437907
2228.0,5.712669857024696,7.568412501477018
2229.0,6.718834928512348,9.041061089448185
2230.0,6.128772302965851,7.586659576982157
2231.0,4.970760959470637,7.060918114143921
2232.0,6.559539732494098,9.901003147128245
2233.0,6.388139260424862,9.156667977970102
2234.0,6.8560319958038285,7.948552882994267
2235.0,5.881241804353527,7.694034506013263
2236.0,6.263624442696039,7.92035517590199
2237.0,6.395148177288224,8.543891199280656
2238.0,6.83344385748005,8.892772844779138
2239.0,6.344862500468322,9.358604023828256
2240.0,6.177181446929676,8.500151736540406
2241.0,6.041777190813383,8.525449589749353
2242.0,6.917987336555393,8.707935259076093
2243.0,6.5551534225019665,9.224704956726985
2244.0,6.640440597954367,8.197324940991345
2245.0,7.172226593233674,8.169079464988197
2246.0,6.9485837922895355,7.637175452399685
2247.0,7.245967741935484,8.358870967741936
2248.0,12.095357985837921,9.82588512981904
2249.0,9.388867033831628,10.18389063729347
2250.0,12.438867033831627,9.543115656963021
2251.0,9.535444531864673,11.15190794649882
2252.0,8.59874114870181,11.81195908733281
2253.0,6.78415945449777,11.89170651011721
2254.0,6.3939680041961715,12.241998022957898
2255.0,5.441437188565434,9.242320805342048
2256.0,5.559428271702071,10.71242712178983
2257.0,6.369800681877786,10.796418124230868
2258.0,7.399954104379754,10.772308081375744
2259.0,9.292807500655652,11.377686298752387
2260.0,8.981484395489115,11.031988310666517
2261.0,7.818043535274063,12.351556704507137
2262.0,6.9671649619722,11.483410138248846
2263.0,6.884657749803305,11.180645161290322
2264.0,7.380645161290323,11.680645161290322
2265.0,5.4845947063689,10.990260545905707
2266.0,5.392326857511751,11.330446952732554
2267.0,6.549762956686639,10.076071234037403
2268.0,6.996655671891706,9.133600133147734
2269.0,6.41486009401037,9.673654905283545
2270.0,5.856726986624706,10.322187254130608
2271.0,6.364791502753737,9.307356412273801
2272.0,6.8102478363493315,9.420003933910307
2273.0,8.827608557191562,10.487440523022741
2274.0,8.384732681428197,8.09923757071672
2275.0,7.069286463601962,8.002038140197069
2276.0,6.631935858529092,7.220373908808212
2277.0,5.147124498894758,9.28902251695328
2278.0,5.434198793600839,8.765066876475217
2279.0,5.841646997115133,10.262313139260424
2280.0,7.202467123749578,9.59567269866247
2281.0,6.283064516129032,8.054130605822188
2282.0,4.973118279569892,8.821765763740586
2283.0,5.365638230115019,7.97526788055899
2284.0,5.781206211831703,6.2912629725375595
2285.0,4.844232138173917,6.860147615301038
2286.0,5.922273425499232,5.596006144393241
2287.0,5.676190476190476,5.984408602150538
2288.0,5.661290322580645,5.612096774193548
2289.0,6.910031471282455,7.146793863099921
2290.0,6.184343036978757,7.795869394177812
2291.0,5.659030197444832,7.390715035030535
2292.0,5.889949795811322,7.745131317672624
2293.0,4.878659761429235,8.260200067438461
2294.0,7.3151756714305884,8.546858491626391
2295.0,7.7767066398065605,8.860289985388333
2296.0,10.388428251528172,11.569761342774719
2297.0,9.276511529383283,11.732480986100182
2298.0,7.1436224909886,11.03178187839643
2299.0,6.348483157374709,8.759862221652973
2300.0,6.655693191590581,8.825898852761972
2301.0,7.005974054489232,8.470227160448648
2302.0,8.494922511115584,9.567774870546906
2303.0,7.968922108575925,9.791974822974035
2304.0,7.260542879622345,10.132100708103854
2305.0,6.035070810385523,10.360739575137686
2306.0,6.276809598741148,9.846498819826909
2307.0,5.507356412273801,9.60228166797797
2308.0,5.538099921321794,10.34268292682927
2309.0,4.4639653815893,10.241227380015735
2310.0,4.783104791877411,12.446828518976433
2311.0,5.030203064703458,11.637536997489791
2312.0,5.633551571690832,10.324905398823574
2313.0,7.8243977370649285,11.920497545989285
2314.0,10.319845640852723,13.219025139560152
2315.0,8.312989397175077,12.480686373684014
2316.0,8.11374620658649,11.805327638529842
2317.0,24.04727436214454,10.957109137911655
2318.0,20.496571878161177,8.835989659435764
2319.0,15.06200447860558,8.328310320678534
2320.0,9.765384615384615,6.618521800779865
2321.0,8.049742998936548,7.443285477962897
2322.0,6.242052852733419,8.065830386503086
2323.0,5.517935028517248,8.12398662182297
2324.0,6.26548368363868,7.092264246375182
2325.0,6.814596680529017,6.6118579296392035
2326.0,6.736637817991083,6.4614589187366525
2327.0,6.505218987673747,6.1092503090929515
2328.0,6.29185680566483,6.691030684500393
2329.0,6.594000786782061,6.570141620771047
2330.0,6.841720055449402,6.332613053089055
2331.0,7.739408414821474,5.682838784609044
2332.0,7.368897755797834,6.372871005207748
2333.0,6.418960871281878,5.847849894663428
2334.0,5.9239572255701285,5.4394245539406825
2335.0,5.8310168653795715,5.101339042546753
2336.0,5.486879400431722,5.43655661804757
2337.0,6.347068732473925,5.86948798644314
2338.0,5.829327301337529,6.045377655389457
2339.0,6.187490165224233,6.377498033044846
2340.0,6.2105822187254125,7.126986624704957
2341.0,6.645805702296654,7.673516353827132
2342.0,5.988835187891049,7.775654715072497
2343.0,5.036117043198082,7.174216027874564
2344.0,4.250946011764265,6.123299988760256
2345.0,5.560642164025326,6.329706642688547
2346.0,5.983162863886703,5.162549173878835
2347.0,4.711093627065303,6.1066089693154995
2348.0,4.844531864673485,5.5784815106215575
2349.0,4.756648308418567,5.80340283241542
2350.0,5.300098347757671,6.305330448465774
2351.0,4.972226593233675,6.570003933910307
2352.0,6.081274586939418,7.0289535798583795
2353.0,6.19948859166011,8.141935483870968
2354.0,6.328225806451613,7.393548387096774
2355.0,6.6948465774980335,7.590243902439024
2356.0,5.663434303697875,7.576101494885917
2357.0,5.762765538945713,7.757808811959087
2358.0,5.479924953095685,7.9004614779398405
2359.0,6.598026992676875,9.701440416389275
2360.0,7.508297524662591,8.777234763662772
2361.0,7.25454215336198,6.847704714640198
2362.0,6.0875779216849235,7.563535677540397
2363.0,6.082002360346184,9.445043273013374
2364.0,4.86559795436664,11.003973249409913
2365.0,5.329976396538159,9.646341463414634
2366.0,5.869394177812746,9.103815892997638
2367.0,5.435483870967742,7.889516129032257
2368.0,4.961624704956726,6.936014948859166
2369.0,5.113867033831628,6.19911487018096
2370.0,4.639988198269079,5.156490952006294
2371.0,4.4793923621618355,6.346008089733503
2372.0,5.165502632693821,7.193568560995784
2373.0,5.140579797857532,7.563739433920393
2374.0,5.1036157390996095,7.008181957041122
2375.0,6.19736255090307,7.854208995829766
2376.0,7.282879060357423,8.034843205574912
2377.0,5.813420254018208,7.90412498595032
2378.0,5.701910756434753,7.605642351354389
2379.0,6.054760031471282,7.299449252557041
2380.0,6.310228166797796,8.005743509047994
2381.0,6.5091660110149485,9.59846577498033
2382.0,6.086998426435877,9.925354051927616
2383.0,5.798906574673687,10.733696463515503
2384.0,6.370971776715286,9.112402913111016
2385.0,6.240560632653473,8.454470536020498
2386.0,5.9145368072787425,10.525661703887511
2387.0,19.32122769703415,10.493495214462957
2388.0,15.538652542055374,9.556810348057397
2389.0,15.215236409276535,8.00039058109475
2390.0,16.711030871829454,10.62142857142857
2391.0,20.058338016559887,9.62442396313364
2392.0,17.669798808587164,8.811367127496158
2393.0,21.01035180397887,9.413944775392455
2394.0,22.852718144692965,9.8252519575887
2395.0,21.257319861324216,8.890815648162912
2396.0,18.21605174812867,7.627646219046051
2397.0,13.400038162850816,8.0338115887857
2398.0,22.98467683122871,7.107621766068695
2399.0,18.157161764308672,6.822858502081966
