time,Engagement,Excitement,Stress,Relaxation,Interest,Focus
4.0,0.45235,0.528145,0.36749899999999996,0.369865,0.44028500000000004,0.352331
5.0,0.46046408888888885,0.5201273111111111,0.36965499999999996,0.3723634444444444,0.44292322222222225,0.3611182
6.0,0.4697373333333333,0.510964238095238,0.372119,0.3752188095238095,0.4459383333333333,0.3711607142857143
7.0,0.47993790222222216,0.5008848577777778,0.3748294,0.3783597111111111,0.4492549555555556,0.38220748000000004
8.0,0.4908264860215053,0.49012563655913977,0.37772261290322573,0.38171246236559137,0.4527952795698925,0.393999335483871
9.0,0.5029976193548387,0.4780991032258064,0.3809566129032258,0.385460129032258,0.45675261290322583,0.407180135483871
10.0,0.5151687526881721,0.4660725698924731,0.38419061290322576,0.3892077956989247,0.46070994623655914,0.420360935483871
11.0,0.5273398860215053,0.4540460365591398,0.38742461290322583,0.39295546236559137,0.46466727956989246,0.433541735483871
12.0,0.5395110193548387,0.4420195032258064,0.3906586129032258,0.3967031290322581,0.4686246129032258,0.446722535483871
13.0,0.551682152688172,0.42999296989247304,0.39389261290322575,0.4004507956989247,0.47258194623655914,0.45990333548387097
14.0,0.5638532860215053,0.41796643655913973,0.3971266129032258,0.4041984623655914,0.47653927956989245,0.47308413548387096
15.0,0.5760244193548387,0.4059399032258064,0.4003606129032258,0.407946129032258,0.4804966129032258,0.48626493548387095
16.0,0.5881955526881719,0.39391336989247305,0.40359461290322574,0.4116937956989247,0.48445394623655913,0.499445735483871
17.0,0.6003666860215053,0.38188683655913974,0.4068286129032258,0.41544146236559143,0.48841127956989244,0.512626535483871
18.0,0.6125378193548388,0.36986030322580643,0.41006261290322576,0.4191891290322581,0.4923686129032258,0.525807335483871
19.0,0.624708952688172,0.35783376989247306,0.4132966129032258,0.42293679569892473,0.4963259462365591,0.538988135483871
20.0,0.6250670033794162,0.34975929062980027,0.4130871105990783,0.4250836758832566,0.4963681213517665,0.5366310479262673
21.0,0.6195185127496159,0.3436608384024577,0.4111558571428572,0.4264301628264209,0.4944527173579109,0.5265050165898617
22.0,0.6110167514592932,0.33855039969278033,0.40836372811059907,0.4273764531490015,0.4915585238095238,0.5124945133640553
23.0,0.6010383548387097,0.33393396774193546,0.40514116129032257,0.42812264516129034,0.4881749354838709,0.4965417741935484
24.0,0.5903216405529954,0.3295645391705069,0.40170337557603686,0.4287687880184332,0.4845466497695853,0.47961791705069123
25.0,0.5796049262672811,0.32519511059907835,0.3982655898617512,0.42941493087557603,0.48091836405529953,0.46269405990783413
26.0,0.5688882119815668,0.3208256820276498,0.39482780414746543,0.4300610737327189,0.4772900783410138,0.445770202764977
27.0,0.5581714976958525,0.3164562534562212,0.3913900184331797,0.4307072165898618,0.47366179262672814,0.4288463456221199
28.0,0.5474547834101382,0.31208682488479267,0.387952232718894,0.4313533594470046,0.4700335069124424,0.4119224884792627
29.0,0.536738069124424,0.30771739631336403,0.38451444700460835,0.43199950230414746,0.46640522119815664,0.39499863133640556
30.0,0.5260213548387096,0.3033479677419355,0.3810766612903226,0.43264564516129034,0.462776935483871,0.3780747741935484
31.0,0.5153046405529954,0.298978539170507,0.3776388755760369,0.4332917880184332,0.45914864976958525,0.36115091705069124
32.0,0.5045879262672811,0.29460911059907835,0.37420108986175116,0.4339379308755761,0.4555203640552995,0.3442270599078341
33.0,0.4938712119815668,0.29023968202764977,0.3707633041474655,0.4345840737327189,0.4518920783410138,0.32730320276497693
34.0,0.49388358894009216,0.29276239723502306,0.3708808658986176,0.4320240525345622,0.44936721751152076,0.31928105253456224
35.0,0.49926051152073736,0.29873118433179724,0.3727761013824885,0.42786094930875573,0.4473940691244239,0.31570975576036864
36.0,0.5073197069124424,0.3064230073732719,0.3755601737327189,0.4228963050691244,0.44569677695852533,0.3143638857142857
37.0,0.5167200387096774,0.31497634838709676,0.3787886645161291,0.4175308903225806,0.4441374129032258,0.314130729032258
38.0,0.5267909387096774,0.32396044838709676,0.38223936451612905,0.41196509032258066,0.4426470129032258,0.31445392903225805
39.0,0.5368618387096775,0.33294454838709675,0.385690064516129,0.4063992903225806,0.4411566129032258,0.3147771290322581
40.0,0.5469327387096774,0.34192864838709675,0.389140764516129,0.40083349032258064,0.4396662129032258,0.31510032903225804
41.0,0.5570036387096774,0.35091274838709674,0.39259146451612903,0.39526769032258063,0.43817581290322577,0.315423529032258
42.0,0.5670745387096774,0.35989684838709673,0.396042164516129,0.3897018903225806,0.43668541290322577,0.3157467290322581
43.0,0.5771454387096775,0.36888094838709673,0.399492864516129,0.3841360903225806,0.43519501290322576,0.31606992903225806
44.0,0.5890438483870968,0.37595155161290317,0.3964933451612903,0.38137607096774195,0.43823705161290316,0.32560742580645163
45.0,0.6018560129032258,0.3820654064516129,0.39026871612903224,0.3800189419354838,0.44354530967741934,0.3397520709677419
46.0,0.6151250548387096,0.3877008870967742,0.3824315322580645,0.3793632580645161,0.4499866774193548,0.3562002903225806
47.0,0.628622535483871,0.39309718064516125,0.3737880709677419,0.37905829677419345,0.4569945999999999,0.37380029677419346
48.0,0.6422342354838709,0.3983738806451612,0.3647414709677419,0.3789286967741935,0.46428579999999997,0.3919761967741935
49.0,0.655845935483871,0.40365058064516124,0.3556948709677419,0.3787990967741935,0.471577,0.4101520967741935
50.0,0.669457635483871,0.40892728064516126,0.3466482709677419,0.3786694967741935,0.47886819999999997,0.42832799677419353
51.0,0.683069335483871,0.4142039806451613,0.33760167096774196,0.37853989677419353,0.4861594,0.44650389677419355
52.0,0.6966810354838711,0.41948068064516125,0.32855507096774195,0.3784102967741935,0.49345059999999996,0.4646797967741936
53.0,0.7102927354838711,0.4247573806451613,0.31950847096774193,0.3782806967741935,0.5007418,0.48285569677419354
54.0,0.7177890347670252,0.4382664935483871,0.3236236430107527,0.3846804960573476,0.5285696709677419,0.5129983867383512
55.0,0.7222276336917564,0.4558918129032258,0.33431970107526887,0.3943449949820788,0.5666658774193548,0.5491244716845878
56.0,0.725137382437276,0.47557523548387093,0.34830620215053765,0.4056418437275985,0.6098962516129032,0.5882422541218638
57.0,0.72728270609319,0.4962877096774194,0.3639379247311828,0.41775486738351253,0.6556937096774194,0.6288558853046595
58.0,0.7290458172043011,0.5175147096774194,0.38039225806451615,0.4302759784946236,0.7027747096774193,0.6702174408602151
59.0,0.7308089283154122,0.5387417096774194,0.39684659139784945,0.4427970896057347,0.7498557096774193,0.7115789964157706
60.0,0.7325720394265234,0.5599687096774193,0.4133009247311828,0.4553182007168458,0.7969367096774194,0.7529405519713261
61.0,0.7343351505376343,0.5811957096774194,0.4297552580645161,0.46783931182795696,0.8440177096774193,0.7943021075268818
62.0,0.7360982616487455,0.6024227096774194,0.44620959139784944,0.4803604229390681,0.8910987096774194,0.8356636630824374
63.0,0.7356087734767025,0.6041508193548388,0.44921183010752685,0.48662026379928314,0.9059472451612903,0.8456795383512545
64.0,0.7339929856630825,0.5961294838709678,0.44548802150537636,0.4897494695340502,0.9046795483870969,0.8400225734767026
65.0,0.7318140480286739,0.5832334258064515,0.43840118924731186,0.49131335770609313,0.895353735483871,0.826529188530466
66.0,0.7293535354838709,0.5679000064516129,0.4296328451612903,0.4920945870967741,0.881998864516129,0.8091175935483871
67.0,0.7267522354838709,0.5513479064516129,0.4200237451612903,0.4924844870967741,0.866629464516129,0.7897468935483871
68.0,0.7241509354838709,0.534795806451613,0.41041464516129034,0.4928743870967741,0.851260064516129,0.770376193548387
69.0,0.7215496354838711,0.5182437064516129,0.4008055451612903,0.4932642870967741,0.835890664516129,0.7510054935483871
70.0,0.7189483354838709,0.5016916064516129,0.39119644516129026,0.4936541870967741,0.8205212645161291,0.7316347935483871
71.0,0.716347035483871,0.48513950645161286,0.3815873451612903,0.4940440870967741,0.805151864516129,0.712264093548387
72.0,0.713745735483871,0.4685874064516129,0.3719782451612903,0.4944339870967741,0.789782464516129,0.6928933935483871
73.0,0.7134709196943974,0.4546547672325976,0.3662046874363327,0.4922325363327673,0.7793308397283532,0.6861541176570458
74.0,0.7143593460101868,0.44203185840407466,0.36234890084889637,0.48873541018675715,0.7713381025466892,0.685730553820034
75.0,0.715829393378608,0.43006381477079797,0.3594519998302207,0.48459044634974524,0.7645748091680814,0.6884648460101868
76.0,0.7175902512733447,0.4184232037351443,0.3570345415959253,0.4801215636672326,0.7584262376910017,0.6927780662139219
77.0,0.7194965144312395,0.4069463089983022,0.35485680475382003,0.47549072156196937,0.7525850271646859,0.6978807504244482
78.0,0.7214027775891341,0.3954694142614601,0.35267906791171477,0.47085987945670627,0.7467438166383701,0.7029834346349746
79.0,0.7233090407470288,0.383992519524618,0.3505013310696095,0.46622903735144305,0.7409026061120543,0.7080861188455009
80.0,0.7252153039049236,0.3725156247877759,0.34832359422750425,0.46159819524617995,0.7350613955857386,0.7131888030560272
81.0,0.7271215670628184,0.3610387300509338,0.34614585738539894,0.45696735314091674,0.7292201850594227,0.7182914872665535
82.0,0.7290278302207132,0.3495618353140917,0.3439681205432937,0.45233651103565364,0.723378974533107,0.7233941714770797
83.0,0.7309340933786078,0.3380849405772496,0.3417903837011884,0.44770566893039043,0.7175377640067913,0.7284968556876061
84.0,0.7328403565365026,0.3266080458404075,0.33961264685908316,0.44307482682512733,0.7116965534804753,0.7335995398981324
85.0,0.7347466196943973,0.3151311511035654,0.3374349100169779,0.4384439847198641,0.7058553429541595,0.7387022241086587
86.0,0.736652882852292,0.3036542563667232,0.33525717317487264,0.43381314261460097,0.7000141324278437,0.7438049083191851
87.0,0.7385591460101867,0.2921773616298811,0.3330794363327674,0.4291823005093378,0.6941729219015279,0.7489075925297113
88.0,0.7404654091680815,0.28070046689303896,0.3309016994906621,0.4245514584040747,0.6883317113752122,0.7540102767402377
89.0,0.7423716723259762,0.2692235721561969,0.32872396264855686,0.4199206162988115,0.6824905008488964,0.7591129609507641
90.0,0.7442779354838709,0.25774667741935475,0.3265462258064516,0.4152897741935484,0.6766492903225806,0.7642156451612903
91.0,0.7461841986417657,0.2462697826825127,0.32436848896434634,0.4106589320882852,0.6708080797962648,0.7693183293718167
92.0,0.7443951775891341,0.24175931103565362,0.32479237113752124,0.409964163327674,0.6676373005093379,0.7698593701188454
93.0,0.7407585144312394,0.24073205093378608,0.32651706281833615,0.4112374312393888,0.6658017368421052,0.7681195891341256
94.0,0.736198030220713,0.24144639660441425,0.3288921592529711,0.4134947174872665,0.6646337809847198,0.7652393972835314
95.0,0.731175635483871,0.24303154516129033,0.3315924580645161,0.41624401290322577,0.6637996290322581,0.761789
96.0,0.7259222854838709,0.2450520951612903,0.3344553580645161,0.4192393129032258,0.6631323790322581,0.7580534999999999
97.0,0.7206689354838709,0.2470726451612903,0.3373182580645161,0.4222346129032258,0.6624651290322581,0.754318
98.0,0.7154155854838709,0.2490931951612903,0.3401811580645161,0.42522991290322576,0.6617978790322581,0.7505825
99.0,0.7101622354838709,0.25111374516129026,0.3430440580645161,0.4282252129032258,0.661130629032258,0.746847
100.0,0.704908885483871,0.25313429516129027,0.3459069580645161,0.43122051290322577,0.660463379032258,0.7431114999999999
101.0,0.6996555354838709,0.25515484516129033,0.3487698580645161,0.4342158129032258,0.659796129032258,0.739376
102.0,0.6944021854838709,0.25717539516129034,0.3516327580645161,0.4372111129032258,0.659128879032258,0.7356404999999999
103.0,0.689148835483871,0.2591959451612903,0.3544956580645161,0.4402064129032258,0.658461629032258,0.731905
104.0,0.6838954854838709,0.2612164951612903,0.3573585580645161,0.44320171290322574,0.657794379032258,0.7281695000000001
105.0,0.678642135483871,0.2632370451612903,0.3602214580645161,0.4461970129032258,0.657127129032258,0.724434
106.0,0.6733887854838709,0.2652575951612903,0.3630843580645161,0.4491923129032258,0.656459879032258,0.7206985000000001
107.0,0.6681354354838709,0.26727814516129034,0.3659472580645161,0.4521876129032258,0.6557926290322581,0.716963
108.0,0.6628820854838708,0.26929869516129035,0.3688101580645161,0.45518291290322577,0.6551253790322581,0.7132275000000001
109.0,0.6576287354838709,0.2713192451612903,0.3716730580645161,0.4581782129032258,0.6544581290322581,0.709492
110.0,0.652375385483871,0.2733397951612903,0.3745359580645161,0.46117351290322584,0.6537908790322581,0.7057565000000001
111.0,0.6471220354838709,0.2753603451612903,0.3773988580645161,0.46416881290322576,0.6531236290322581,0.702021
112.0,0.6468335112903225,0.2772400693548387,0.3794548419354839,0.4654880870967742,0.6489009467741935,0.6965478483870968
113.0,0.6490273999999998,0.27904938064516127,0.38110736774193554,0.4659693483870968,0.6429005483870969,0.690205870967742
114.0,0.6524624951612903,0.2808234854838709,0.382558164516129,0.4660316032258065,0.6360112919354839,0.6834294806451613
115.0,0.656518193548387,0.2825799870967742,0.3839080967741936,0.46588435483870966,0.6286776064516129,0.6764358838709678
116.0,0.6608841935483871,0.2843276870967742,0.3852075967741936,0.4656323548387097,0.6211217064516129,0.6693336838709678
117.0,0.665250193548387,0.2860753870967742,0.3865070967741936,0.46538035483870965,0.613565806451613,0.6622314838709678
118.0,0.6696161935483871,0.2878230870967742,0.38780659677419355,0.4651283548387097,0.6060099064516129,0.6551292838709677
119.0,0.6739821935483871,0.2895707870967742,0.3891060967741935,0.46487635483870965,0.5984540064516128,0.6480270838709677
120.0,0.678348193548387,0.2913184870967742,0.3904055967741935,0.4646243548387096,0.5908981064516129,0.6409248838709678
121.0,0.682714193548387,0.29306618709677423,0.3917050967741935,0.46437235483870964,0.5833422064516129,0.6338226838709677
122.0,0.6861187859237536,0.29058549061583583,0.3921990366568915,0.46346060117302046,0.5792480260997067,0.6244118011730206
123.0,0.6890426744868035,0.28599059589442816,0.39229019648093844,0.46221897067448675,0.5768847055718475,0.6138465771260997
124.0,0.6917262111436949,0.28033860205278593,0.3921799662756599,0.46081240175953075,0.5753868149560117,0.6027041824046921
125.0,0.6942895718475073,0.2741580586510264,0.3919690410557185,0.4593233636363636,0.5743216392961876,0.591273202346041
126.0,0.69679284457478,0.2677132404692082,0.3917077683284458,0.45779309090909087,0.5734728211143696,0.5796979296187683
127.0,0.6992961173020528,0.26126842228739,0.391446495601173,0.45626281818181813,0.5726240029325513,0.5681226568914957
128.0,0.7017993900293256,0.2548236041055718,0.3911852228739003,0.4547325454545454,0.5717751847507331,0.5565473841642229
129.0,0.7043026627565983,0.24837878592375368,0.39092395014662756,0.45320227272727265,0.570926366568915,0.5449721114369501
130.0,0.7068059354838709,0.24193396774193549,0.3906626774193548,0.45167199999999996,0.5700775483870968,0.5333968387096775
131.0,0.7093092082111436,0.2354891495601173,0.39040140469208207,0.4501417272727273,0.5692287302052785,0.5218215659824048
132.0,0.7118124809384164,0.2290443313782991,0.39014013196480934,0.4486114545454545,0.5683799120234604,0.5102462932551319
133.0,0.7120408774193548,0.2245142580645161,0.3875649870967742,0.4487022258064516,0.5681389483870969,0.51441
134.0,0.711131835777126,0.22094155718475073,0.38383290615835775,0.4496035190615835,0.5682019120234605,0.5264431964809384
135.0,0.7096540750733138,0.21784754252199412,0.37952235718475075,0.4509100733137829,0.5684168392961877,0.542411137829912
136.0,0.7078919548387097,0.21499287096774192,0.37492257419354835,0.45241925806451605,0.5687077483870968,0.5603464516129032
137.0,0.7059876548387096,0.2122578709677419,0.37017817419354837,0.45402975806451606,0.5690366483870968,0.5792654516129032
138.0,0.7040833548387095,0.20952287096774191,0.3654337741935484,0.455640258064516,0.5693655483870967,0.5981844516129032
139.0,0.7021790548387097,0.20678787096774193,0.36068937419354835,0.4572507580645161,0.5696944483870967,0.6171034516129033
140.0,0.7002747548387096,0.20405287096774194,0.35594497419354837,0.4588612580645161,0.5700233483870967,0.6360224516129033
141.0,0.6983704548387095,0.20131787096774195,0.35120057419354833,0.4604717580645161,0.5703522483870967,0.6549414516129033
142.0,0.6964661548387097,0.19858287096774196,0.34645617419354835,0.4620822580645161,0.5706811483870967,0.6738604516129032
143.0,0.6971260354838709,0.2017287483870968,0.3436292967741935,0.4558147193548387,0.5592332741935483,0.6732471677419355
144.0,0.6990680064516128,0.20781506451612902,0.34176118064516126,0.44560816129032255,0.5418970129032257,0.6628677419354838
145.0,0.7016510225806452,0.2153716,0.3403724451612903,0.4334320935483871,0.5216165580645161,0.6476052451612904
146.0,0.7045545612903226,0.22366324516129032,0.33922339999999995,0.42027127096774186,0.4998640064516129,0.6299012129032259
147.0,0.7076183612903226,0.2323224451612903,0.3381942,0.40661807096774194,0.47737540645161286,0.6109764129032258
148.0,0.7106821612903225,0.24098164516129034,0.33716499999999994,0.3929648709677419,0.45488680645161284,0.5920516129032258
149.0,0.7137459612903225,0.24964084516129031,0.3361358,0.3793116709677419,0.4323982064516129,0.5731268129032259
150.0,0.7168097612903225,0.25830004516129035,0.33510660000000003,0.36565847096774196,0.4099096064516129,0.5542020129032257
151.0,0.7198735612903226,0.2669592451612903,0.33407739999999997,0.3520052709677419,0.3874210064516129,0.5352772129032257
152.0,0.7229373612903226,0.2756184451612903,0.3330482,0.3383520709677419,0.3649324064516129,0.5163524129032258
153.0,0.7207056774193548,0.2737302903225806,0.32909900000000003,0.3315004193548387,0.35601221935483873,0.5052302451612903
154.0,0.7158262516129033,0.2665684580645161,0.3236898,0.32804954193548386,0.35387623870967744,0.4980093935483871
155.0,0.7096229548387096,0.25676978709677417,0.3175506,0.3262990516129032,0.3551323612903226,0.4927392
156.0,0.7027577225806452,0.24565269677419355,0.31104639999999995,0.3253987548387096,0.358084535483871,0.48844433548387095
157.0,0.6955615225806451,0.23387639677419356,0.3043597,0.3249235548387096,0.36188473548387096,0.48463713548387094
158.0,0.6883653225806452,0.22210009677419357,0.29767299999999997,0.32444835483870965,0.36568493548387093,0.480829935483871
159.0,0.6811691225806451,0.21032379677419355,0.29098630000000003,0.32397315483870964,0.36948513548387096,0.477022735483871
160.0,0.673972922580645,0.19854749677419356,0.2842996,0.3234979548387097,0.37328533548387094,0.47321553548387096
161.0,0.6667767225806451,0.18677119677419354,0.27761289999999994,0.3230227548387097,0.37708553548387097,0.46940833548387095
162.0,0.659580522580645,0.17499489677419355,0.2709262,0.32254755483870967,0.38088573548387095,0.46560113548387094
163.0,0.6597082451612901,0.16942922903225807,0.2708605064516129,0.32323178709677414,0.37941858064516126,0.4581250322580645
164.0,0.6634979290322579,0.16696887741935484,0.2741053161290323,0.3244957354838709,0.37531774838709675,0.4488144774193549
165.0,0.669118593548387,0.16606118387096774,0.2790053774193548,0.32604954193548386,0.3699000774193548,0.43858669677419354
166.0,0.6756547483870966,0.1659298193548387,0.284733064516129,0.3277482774193548,0.3638239870967742,0.4279003032258064
167.0,0.6826486483870966,0.1661866193548387,0.29087456451612903,0.32951947741935483,0.35741868709677416,0.41698460322580644
168.0,0.6896425483870967,0.1664434193548387,0.297016064516129,0.3312906774193548,0.3510133870967742,0.4060689032258064
169.0,0.6966364483870967,0.1667002193548387,0.30315756451612896,0.3330618774193548,0.34460808709677415,0.39515320322580644
170.0,0.7036303483870967,0.1669570193548387,0.309299064516129,0.33483307741935486,0.3382027870967742,0.3842375032258064
