time,emg_right_hand,emg_left_hand
0.0,7.55,5.85
1.0,10.11984126984127,6.140476190476189
2.0,16.608503401360544,8.51734693877551
3.0,16.33600077429346,6.498339140534263
4.0,17.750670349844228,7.048410584956612
5.0,18.740657755567277,11.855656905381531
6.0,21.13476820190038,12.290962093243762
7.0,16.783225114775075,13.463222982105751
8.0,14.620453739808578,9.518580881484107
9.0,12.630798771121352,7.303955453149002
10.0,12.939573264396238,6.107790079052864
11.0,8.948012438649732,5.122846652429658
12.0,10.243130643287998,4.972713648795475
13.0,11.33894196545652,5.279648570679255
14.0,9.72584579071597,5.291974822974036
15.0,8.108005507474429,5.519315499606608
16.0,8.345692368214003,5.5714594807238385
17.0,11.564437450826121,5.3214791502753735
18.0,10.988655351991309,5.741159941553333
19.0,10.484650256640816,5.39154771271215
20.0,12.88898130455959,4.758165673822637
21.0,10.759203476827395,5.114802742497471
22.0,8.471812596006146,5.030414746543778
23.0,8.64758064516129,4.983870967741935
24.0,7.828225806451612,4.526612903225805
25.0,8.353801843317973,4.7151689708141316
26.0,9.002457757296465,6.693241167434715
27.0,7.184293394777265,6.07968509984639
28.0,6.907066052227343,5.682181259600615
29.0,6.3224944737926645,5.99762092090967
30.0,6.455794087894796,8.597504776891087
31.0,5.754104379753475,7.320220298977183
32.0,6.538035292795325,6.1036969390431235
33.0,6.638679704769398,4.957551234498521
34.0,7.355138436176988,5.0570229665430295
35.0,6.679405042898355,5.057622419542168
36.0,6.8073695253081565,4.8140946386422385
37.0,6.899460492300776,4.178449664680978
38.0,7.7773032108201265,5.172942190251395
39.0,7.114458057022966,4.985088606646435
40.0,7.957757296466973,4.570791652616987
41.0,7.67741935483871,4.312277546738601
42.0,7.313532651455546,5.421677719081338
43.0,7.118133453223932,5.954464051552958
44.0,7.477387652997408,6.552264520163812
45.0,9.791689218203773,5.969834257009709
46.0,8.686474409409106,6.854732796707619
47.0,9.121443341604632,7.594478908188586
48.0,9.60951199338296,6.428287841191067
49.0,7.4403225806451605,5.925806451612903
50.0,6.711506687647521,5.7342053501180175
51.0,5.77735472631224,5.70571634633397
52.0,7.071338653478701,5.003261398973436
53.0,8.496959649319997,4.803243602712525
54.0,8.833157244014837,4.713315349743359
55.0,7.994470046082949,5.118970814132105
56.0,6.898387096774194,5.550806451612903
57.0,6.536369000786782,9.061231313926042
58.0,7.8036191974822975,9.944610542879621
59.0,8.284874114870181,11.2198859166011
60.0,8.259775767112508,9.211152635719905
61.0,8.294807238394963,7.502753737214792
62.0,7.014437450826121,6.739811172305271
63.0,7.086683713611329,6.6098741148701805
64.0,6.215941703195833,6.511350267880559
65.0,8.124714323180097,7.060475441159941
66.0,6.6819808175040265,7.4305449402420285
67.0,7.192948934097636,6.847626540781537
68.0,8.83794162826421,7.0652841781874045
69.0,12.679416282642089,10.045622119815668
70.0,12.849769585253455,7.532565284178187
71.0,14.257037952868007,6.977430594582444
72.0,13.61890050038642,9.785316233239495
73.0,15.328089491885166,9.357749345873053
74.0,11.746194627925274,8.840233838947542
75.0,12.172890783671527,7.648637769198396
76.0,8.345914875931527,7.246951981897913
77.0,9.316398786107676,6.29373196957776
78.0,8.761567569592746,6.960660896931549
79.0,8.0791652616987,7.4482784459181
80.0,7.547412985650594,6.373365553932037
81.0,7.67333558128208,6.2235959686785804
82.0,7.675620995841294,5.848525720280244
83.0,7.7294219025139554,6.035854782510959
84.0,7.785807950245401,6.024202914840208
85.0,7.37659770075191,5.427320646832841
86.0,8.002696962099007,5.157248049616264
87.0,8.61164033972846,5.070943533256672
88.0,8.788229970920764,6.047273497548871
89.0,8.85005519002372,6.29940386128427
90.0,8.861675218456181,8.48489149726456
91.0,8.003341449473867,9.45947723864764
92.0,8.720046300773799,8.003932167710918
93.0,9.070084594319312,13.584915392611219
94.0,8.133783445861466,13.53864180330797
95.0,9.262260687123,9.419980517777528
96.0,7.895800082424788,9.55092727885804
97.0,9.099052114945113,8.154495897493538
98.0,8.942289535798583,6.619256490952006
99.0,7.979701022816679,5.701337529504327
100.0,9.160582218725413,4.587883556254917
101.0,8.905802517702597,5.158733280881195
102.0,8.797160091416583,5.567269866247049
103.0,6.992049754598928,5.6366640440597955
104.0,6.698857292720392,6.2852871754524
105.0,6.679405042898355,6.092053501180173
106.0,5.343164362519202,6.332258064516129
107.0,7.1241935483870975,7.5854838709677415
108.0,7.760483870967742,6.655645161290321
109.0,7.7294059795436665,5.659107002360345
110.0,8.904430332321756,6.028996665542692
111.0,8.589843018245851,5.716091566445619
112.0,8.267502154284216,6.226594170319583
113.0,8.330328575175152,6.079967030085047
114.0,8.019609606234312,6.375152673185718
115.0,8.9220692368214,6.017781274586939
116.0,7.967722265932338,5.740991345397324
117.0,6.552006294256491,5.031785995279307
118.0,6.876467723202578,4.976366565508973
119.0,7.3296579371323665,5.767884305571165
120.0,7.045462890112772,6.220853471207523
121.0,7.890552058746394,6.521913753699749
122.0,8.051478026301,6.753737214791503
123.0,9.372410175714661,6.872129182121315
124.0,7.485444531864673,6.513038102731258
125.0,7.962571653366303,6.170619309879735
126.0,6.270821625266944,6.110486680903675
127.0,6.539942302648832,6.466456858116968
128.0,5.805769735116706,5.500734329923944
129.0,9.198583792289536,5.528324154209283
130.0,9.444610542879623,5.93426435877262
131.0,8.556058221872542,7.940145554681353
132.0,7.741738788355626,8.801927616050353
133.0,8.108870967741936,7.900806451612903
134.0,7.530684500393391,6.831372934697089
135.0,8.164535798583792,7.197541306058222
136.0,7.637509834775766,6.356431943351692
137.0,7.168902439024389,5.629602675059008
138.0,7.234316810910045,5.2969870281829365
139.0,6.108739837398374,6.633072585688636
140.0,7.441063467086284,6.420971776715286
141.0,7.0833389532052,6.166975903718626
142.0,8.38077254505264,5.935179533291256
143.0,7.924191675096473,7.330276123037728
144.0,6.977418418193398,7.024736802667565
145.0,6.82160653403769,6.999288149563522
146.0,7.2892210857592445,7.688276947285602
147.0,6.625491738788355,7.055704169944925
148.0,6.76750590086546,6.372462627852085
149.0,6.0095594020456335,5.74822974036192
150.0,7.283300550747443,5.536191974822973
151.0,7.5137449817426205,5.135465714458633
152.0,6.415772962940547,5.410219088543242
153.0,6.192937622304262,5.85971221933063
154.0,7.6319718833487515,7.08601970413536
155.0,7.979964436298032,8.56845148033189
156.0,7.183057959611855,8.359671799482971
157.0,6.9093701996927805,7.811284702708778
158.0,8.371735791090629,7.539938556067588
159.0,6.508823198831067,6.77202053126522
160.0,5.307406991120603,6.863736840133378
161.0,5.98227492413173,7.753681016072833
162.0,6.938263834251246,7.574800494548724
163.0,6.900775542317636,7.222116069086958
164.0,5.601449926941665,8.196030497171332
165.0,7.0250515154921125,6.627931699823911
166.0,6.942639841144954,5.893971750777416
167.0,7.763216065340377,6.5665767487167965
168.0,7.408182533438238,6.836821400472068
169.0,6.680881195908733,5.777183320220299
170.0,7.675216365066876,5.487332808811958
171.0,6.799261923494811,6.996635570042336
172.0,6.031023565996028,7.346862238207636
173.0,6.867183694878424,8.115956689520813
174.0,6.886778314787756,8.650661271589675
175.0,6.1424450189202355,7.4286351204525864
176.0,6.717151848937844,7.746498819826908
177.0,6.484933123524783,7.723524783634932
178.0,6.943196856906534,7.107278742762613
179.0,6.105007161734148,5.900197199862817
180.0,6.727759285037019,5.670328733684359
181.0,7.917911900583025,6.201696624906696
182.0,8.478536988843834,6.098605983578446
183.0,8.145554681353264,8.324075531077892
184.0,9.251534225019668,9.309952793076317
185.0,7.901691581431943,8.179760031471282
186.0,6.759716758457907,7.580605822187254
187.0,7.180184331797236,8.067549923195084
188.0,7.826804915514593,7.159024577572965
189.0,8.652112135176651,7.390399385560675
190.0,7.8845238095238095,6.704877112135177
191.0,9.143554295167199,11.842089093701997
192.0,10.900118161408484,11.035944700460831
193.0,10.384698097601323,9.466666666666669
194.0,8.806865177832918,7.912365591397849
195.0,8.456658395368072,6.942473118279569
196.0,8.037096774193548,6.350806451612902
197.0,8.801986624704956,6.07029897718332
198.0,7.855428796223446,6.521439811172305
199.0,6.516502753737214,6.6696892210857595
200.0,5.499745232475366,6.667045071372373
201.0,6.066539282904349,5.938668465025664
202.0,6.251208272451388,6.524408976808662
203.0,6.470765426548274,7.94930126259788
204.0,5.97722453261399,7.58839683788543
205.0,7.572245326139897,8.05526956652055
206.0,6.498422689296017,7.16580869956165
207.0,6.474043685137312,7.954228016934547
208.0,5.476115544565584,6.6289573264396235
209.0,6.2755385710539136,6.230377280731332
210.0,7.196777940129632,6.22651830204938
211.0,10.018530590835862,7.0912292533063574
212.0,9.390601700947885,6.772573151998801
213.0,8.320876887340301,6.665856468472518
214.0,7.8443670150987215,6.9985388333145995
215.0,7.265220486306244,7.463864223895694
216.0,7.571162564160203,6.57221535348994
217.0,6.8970252144917765,6.7937881682964285
218.0,6.548802102696674,6.8119360314482265
219.0,6.794447134297646,6.656198430470656
220.0,7.146712158808933,6.60748552522746
221.0,7.921339950372208,7.8045492142266335
222.0,8.013266355988621,12.689450059513
223.0,9.835326514555469,11.509303697875687
224.0,10.544315499606608,14.310306845003932
225.0,9.393922108575923,11.291030684500392
226.0,9.847364280094414,10.405192761605036
227.0,10.445476003147128,7.982533438237608
228.0,8.830999213217938,7.36191974822974
229.0,7.5651455546813535,5.874822974036192
230.0,7.81774193548387,5.8758064516129025
231.0,6.777380015735641,5.415676632572778
232.0,6.91100183582481,5.844224645011427
233.0,6.547023341201154,6.3490005994529986
234.0,6.729446327341686,6.816260018502348
235.0,7.208674776574069,5.686355815702786
236.0,7.35469144021465,5.457733375986719
237.0,6.800463999677218,5.479481127317476
238.0,5.85475599669148,5.661455748552522
239.0,5.862549173878835,5.685405192761605
240.0,10.561605035405192,10.485267505900865
241.0,12.312714960098909,8.648374920385148
242.0,10.939490839608856,9.597781087257877
243.0,10.5124873552883,7.142842156532164
244.0,7.615803079689783,6.587943501554831
245.0,6.817185568169046,6.356048855419429
246.0,6.369984264358772,6.518214004720692
247.0,7.400570416994492,5.760287175452399
248.0,7.153107789142407,5.913611329661684
249.0,8.270889063729348,5.8934697088906365
250.0,10.655389457120378,4.970967741935484
251.0,9.571203776553894,4.580684500393391
252.0,8.954366640440597,4.611349331235248
253.0,14.871192536810161,4.125547937507025
254.0,28.674384624030573,5.278745644599303
255.0,28.015398448915363,7.331347645273687
256.0,20.30470945262448,10.747105765988536
257.0,17.659042373833877,9.679217713836124
258.0,12.802255441909256,9.570437168391535
259.0,8.326304746918437,8.243047065706389
260.0,7.084080776291634,7.11875106273218
261.0,8.917728822449515,5.664804327589536
262.0,11.508825072121688,5.515328993063061
263.0,10.40363886703383,5.390015360983103
264.0,11.440204563335955,6.989696901577311
265.0,9.499134539732495,7.1771833202202995
266.0,9.001101494885916,7.29645948072384
267.0,7.563099921321792,6.437529504327301
268.0,7.606254917387883,6.84795436664044
269.0,8.018548387096775,6.44758064516129
270.0,6.01536191974823,5.925472069236822
271.0,7.551402158030797,5.4498136075830805
272.0,7.224337791765015,6.149580382900603
273.0,6.546984002098085,6.772980592709153
274.0,9.699691339345154,10.592910891888074
275.0,10.913968407674151,10.143032943977083
276.0,9.513435816740301,8.885648576443227
277.0,9.32776245522115,7.048815071631752
278.0,10.774424107232917,5.696319416225002
279.0,8.782083848488254,4.994065415308531
280.0,6.943756322355849,4.583578734404856
281.0,7.759109812296279,4.410808886890711
282.0,9.797757671125098,4.7656963021243115
283.0,8.883124461428945,4.461788617886179
284.0,9.26915439661309,4.700479562399311
285.0,8.438668465025664,4.734976209209096
286.0,7.313204825596642,4.079338541081263
287.0,8.886441122475741,4.574519500955378
288.0,9.6828518976434,5.599471732044509
289.0,7.960061443932412,6.836686523547263
290.0,6.562005919598366,5.983721104492151
291.0,6.031002959799183,5.7257315199880106
292.0,7.122644337042449,5.656644561837323
293.0,7.9066317101923556,5.4233906908782945
294.0,14.513504682790906,7.039390073999336
295.0,31.491775382870106,6.595347878781542
296.0,27.477407679445992,6.193977936992959
297.0,17.500608601627757,7.33278005912628
298.0,12.959499456745718,7.2440523022741745
299.0,10.054381626765576,5.522704282342362
300.0,9.51451800232288,4.96066089693155
301.0,8.542074107377019,4.829268292682927
302.0,7.0396238432430405,5.118167172455134
303.0,6.570963995354239,7.257547487917275
304.0,6.969813794912142,7.629541793113783
305.0,6.08221872541306,6.013926042486231
306.0,5.806648308418568,5.2846970889063725
307.0,6.438808025177026,5.947187254130606
308.0,6.6949449252557045,6.725629425649094
309.0,7.151101494885916,6.371282454760031
310.0,7.593115656963021,7.545830055074744
311.0,7.796400472069236,6.705802517702596
312.0,7.578442171518489,7.079110936270653
313.0,7.625885129819039,5.817604248623131
314.0,7.458103855232101,6.346302124311565
315.0,7.791282642089093,6.647580645161289
316.0,8.148621258101981,6.402143981117231
317.0,7.929955790341314,6.449055861526357
318.0,6.964171443557753,6.401140833988984
319.0,8.177247012101457,5.64492525570417
320.0,8.589929189614477,9.161172305271439
321.0,10.158064516129032,9.345967741935485
322.0,8.371121351766513,9.421812596006145
323.0,8.846437937881682,8.04595743883706
324.0,7.31797703345697,6.588301300063692
325.0,7.359391742534937,5.905440972612491
326.0,6.87284103255779,5.342639841144956
327.0,7.206923682140046,5.427576711250984
328.0,6.501180173092053,5.929760031471282
329.0,7.439299763965382,5.9918961447679
330.0,6.9930369787568845,5.901593233674272
331.0,7.771675845790716,6.056254917387884
332.0,6.068371361132966,5.618607395751377
333.0,6.758339889850511,6.344158143194335
334.0,7.546374246000525,8.211614401858304
335.0,10.112457382638343,7.574807987711214
336.0,7.562916338840808,6.8098272826046236
337.0,7.94909894721067,5.803456221198156
338.0,7.855194634895657,5.8073732718894
339.0,7.496414521748903,5.2592933947772655
340.0,8.31105904323843,6.567944827268194
341.0,6.872917405175469,7.031572728346922
342.0,6.542679900744417,6.522084367245657
343.0,6.457118864612964,6.930652726502451
344.0,6.7383253646432255,7.956327543424317
345.0,6.317053501180173,10.04516129032258
346.0,5.600059008654603,9.895967741935484
347.0,6.582690794649882,7.948387096774193
348.0,9.781431943351691,7.856569630212432
349.0,12.632651455546814,8.934185680566483
350.0,17.977222659323367,11.071341463414633
351.0,19.206982690794653,9.219118804091266
352.0,17.236644374508263,12.09107002360346
353.0,16.51927616050354,11.811959087332808
354.0,12.722265932336743,9.081038552321006
355.0,9.699247513566947,7.689543868143396
356.0,7.289120216264196,7.557045734229054
357.0,8.008682846133672,6.986862756965039
358.0,6.417664265972684,6.270921918364876
359.0,7.077439528737719,6.291637198364185
360.0,8.326147390506163,5.867193997976846
361.0,7.5176435877262,6.930582406054475
362.0,9.078284815106215,6.227810872578772
363.0,8.73968004196171,6.518129706642688
364.0,7.28950957251508,7.234595931212768
365.0,6.714188303173355,6.613157993331085
366.0,8.63205574912892,6.446747967479674
367.0,7.456075081488143,7.199770521898767
368.0,9.347117005732269,7.732939942302648
369.0,10.378704432205613,8.003259525682815
370.0,10.124049305009178,7.6440373159491966
371.0,8.997677119628339,7.3579483721104495
372.0,7.6519051365628865,6.4151961335281555
373.0,8.936495447903788,6.920186579745982
374.0,7.899891349143907,7.86877224532614
375.0,6.424847326814281,7.662710276872354
376.0,7.032565284178187,7.407987711213518
377.0,6.949999999999999,6.337096774193549
378.0,10.04516129032258,7.074193548387097
379.0,8.547757671125098,6.6429976396538155
380.0,13.028756884343036,6.8520062942564905
381.0,11.476750590086546,6.596282454760031
382.0,8.561014948859166,6.2720692368214
383.0,7.566797797010229,5.8489378442171525
384.0,6.585837922895358,6.4487804878048784
385.0,6.732887490165224,6.336113296616837
386.0,7.349134539732494,7.093705743509048
387.0,8.92043666404406,6.535444531864673
388.0,7.38477576711251,6.7667387883556245
389.0,6.6728560188827695,7.134736428009441
390.0,6.49771833202203,6.950432730133754
391.0,6.796852871754524,5.800944138473643
392.0,6.444531864673484,6.236349331235248
393.0,7.269394177812745,5.496380802517702
394.0,5.977419354838709,6.78225806451613
395.0,6.559208552138034,8.119467366841711
396.0,6.70385542814275,8.136730611224234
397.0,7.3314016004001,7.795208623584467
398.0,6.774974993748437,6.632684956953524
399.0,6.666116529132283,7.392955381702568
400.0,5.921812596006145,7.748079877112135
401.0,5.758253718481885,8.087276610093289
402.0,7.691722865385335,8.040566108426061
403.0,6.214697838222621,9.167402869881233
404.0,7.521786369937431,8.984114495522835
405.0,10.177175827057809,6.486680903675396
406.0,14.546101682214978,7.715915477127121
407.0,16.568749765838675,6.789217339178
408.0,14.081225881383236,10.211044921509123
409.0,14.493855606758832,8.84715821812596
410.0,10.88327526132404,8.00781162189502
411.0,7.388411824210408,6.414735304035068
412.0,8.456955528080627,5.55045520962122
413.0,7.502978532089469,6.273230677007231
414.0,7.088355625491738,5.802360346184107
415.0,7.270583717357911,6.092780337941628
416.0,7.152856768199019,5.471665542692293
417.0,9.700031845940579,5.051440560488554
418.0,11.174681540594207,6.651920122887865
419.0,9.076261661234124,6.950076804915515
420.0,7.514705331385111,5.836251920122888
421.0,8.044621782623356,5.13784421715185
422.0,7.352890487430219,5.431197782023903
423.0,8.12058371735791,5.618356374807988
424.0,7.963508298677456,4.51853714735304
425.0,6.095070940074874,4.484981973180242
426.0,10.006828864814702,10.441646132519459
427.0,13.086747765740684,8.135492805123016
428.0,12.86272872158002,8.230956848030019
429.0,15.673614557485525,7.645533498759305
430.0,14.296774193548387,6.292741935483871
431.0,11.184677419354838,6.062096774193549
432.0,7.853992918961447,6.147167584579072
433.0,7.374749915701921,5.889828031920873
434.0,6.84388557940879,8.371762953804653
435.0,8.919907459443259,18.18939530178712
436.0,15.116443745082613,16.81117230527144
437.0,20.30903675396201,14.117867445955564
438.0,18.544303323217562,12.496721741410962
439.0,16.574500768049155,15.463901689708141
440.0,21.47926267281106,13.436251920122887
441.0,15.920122887864824,9.976190476190476
442.0,18.624442696039864,10.345397324940992
443.0,18.39974148589412,17.286276272900977
444.0,12.753250159229701,23.4526619459743
445.0,19.599359334607172,16.548143568993293
446.0,29.768873403019743,13.262972537559477
447.0,24.89809299014649,15.674984077029709
448.0,28.169045745757,14.187797384886291
449.0,20.172080476565135,14.499044621782623
450.0,19.57425157683149,13.478436682341318
451.0,13.382756403386562,10.780945236309076
452.0,12.812964129534125,7.318032469789922
453.0,10.840795129095863,7.3258327648114125
454.0,9.821272391268549,7.596142938173568
455.0,21.465324867802316,12.850134484840723
456.0,16.832887490165223,12.371203776553894
457.0,22.434382376081825,11.522816679779702
458.0,16.8364252648528,12.686005342799113
459.0,12.059571142785696,9.075684099596327
460.0,10.8654759726517,7.7231587295778645
461.0,14.326886294744417,8.770007767621347
462.0,11.3264840600394,7.048467691835851
463.0,10.037660634670862,6.749215091229253
464.0,8.552163650668763,5.8528717545239966
465.0,7.579464988198269,5.56624704956727
466.0,8.1139991008205,5.8926173616574875
467.0,5.889414971338653,6.9490624180435345
468.0,4.670264321306807,8.491293881832828
469.0,6.497516953280132,7.76601944475666
470.0,8.163107414484283,6.138586040238282
471.0,10.389157393878087,5.6252069986137645
472.0,9.158622756734479,4.878299801431194
473.0,7.914488029672923,6.911269716383799
474.0,7.58756884343037,6.175531077891424
475.0,7.662627852084972,6.717820613690008
476.0,7.708379228953579,6.460739575137687
477.0,7.574773331834701,6.0005310778914245
478.0,7.797782023903188,5.524272226593234
479.0,7.368363867970476,5.138139260424863
480.0,8.128005694803491,5.915184893784422
481.0,6.529478101232625,7.196006144393241
482.0,8.670896556891837,6.580890562361844
483.0,9.859651193286126,7.004281405717283
484.0,9.689483346446368,7.327563598216626
485.0,9.762522947810123,6.627196433254655
486.0,9.2943314225769,6.023041474654377
487.0,8.210258139447754,5.963152373459218
488.0,8.271514742797198,6.488404331047919
489.0,8.213255404443444,6.206436626578247
490.0,9.562961297815743,7.123674646884718
491.0,8.631598666217076,7.1613652542055375
492.0,7.786782061369001,8.206136900078679
493.0,8.299606608969317,8.376868607395751
494.0,15.772462627852084,7.524311565696301
495.0,21.56884343036979,6.8206136900078675
496.0,16.2081038552321,5.875688434303697
497.0,10.95967741935484,4.9967741935483865
498.0,9.092741935483872,5.961290322580645
499.0,7.930409126671913,6.108634933123525
500.0,7.6234067663257274,5.724193548387097
501.0,6.845689558278071,6.14857910906298
502.0,7.1444222771720804,7.021073582855644
503.0,6.577453074069911,6.843198081750403
504.0,6.708868157806002,7.210348057397624
505.0,7.342711026188603,7.273466711625641
506.0,8.242092840283242,7.273446105428796
507.0,7.434107002360346,6.259618410700236
508.0,6.319224717061067,7.151180173092054
509.0,7.052216607153665,6.852930763178599
510.0,7.784576045512315,7.038158929976396
511.0,7.094864734007142,7.015047206923682
512.0,8.42522544332143,8.054209284028325
513.0,8.798583792289534,7.636860739575138
514.0,7.6419354838709666,7.557376081825334
515.0,5.563110008271298,9.882172325445339
516.0,6.315622667392927,8.350763582077509
517.0,7.156867195222821,8.340291311101698
518.0,7.948614557485525,8.11782464846981
519.0,6.991016562771087,7.18658738324356
520.0,7.276278520849725,5.79073564122738
521.0,6.215673822636844,6.078681952718145
522.0,6.152191750028099,5.704663557004233
523.0,5.283353939530178,5.834993068824698
524.0,5.849799557903413,6.5763703120902175
525.0,5.788393091304185,6.675281930238657
526.0,6.725122700535761,6.608443857480049
527.0,6.385319021392979,5.8351326289760586
528.0,6.830485931587427,6.089206099434266
529.0,6.924843580233038,5.532913716233937
530.0,8.470463434673999,8.407711684018565
531.0,8.659738105258022,7.674463912145283
532.0,8.661415353838459,9.468834978779539
533.0,9.584931947272533,9.941022712124024
534.0,8.194155681777588,7.81381059550602
535.0,9.137662987175364,7.546590218983317
536.0,7.8460972385953625,6.977672989675991
537.0,7.611546963395901,7.1875538571053905
538.0,10.115374096137275,7.531104117492788
539.0,11.967210857592447,5.970928402832415
540.0,10.214819241864873,5.936415400754504
541.0,8.961845104803405,5.948449635861122
542.0,8.090363937138129,6.594995864350702
543.0,7.229072605862534,5.561089592285501
544.0,11.250413564929692,11.268959430289092
545.0,19.153033794162823,13.022403619197483
546.0,16.124638454909892,14.320416994492525
547.0,14.90062567906785,10.28198269079465
548.0,12.350942265183019,7.221085759244689
549.0,12.23967254879922,9.497875688434304
550.0,12.06699449252557,22.12797010228167
551.0,15.963248847926266,22.11033026113671
552.0,13.882303023491065,17.26080045708291
553.0,16.86809879734742,14.806963957888426
554.0,15.676683151624141,13.669050428983553
555.0,15.407551666796355,29.28494911854471
556.0,14.122439427868223,32.94762048861183
557.0,11.747451027860153,24.483172950836206
558.0,11.390877362867922,22.743238717746976
559.0,20.121009098428452,21.78916459884202
560.0,18.705232100708102,20.17108575924469
561.0,19.892722265932335,18.024901652242328
562.0,18.78933348319658,13.70838016559889
563.0,11.901080845124174,11.777230217833203
564.0,12.632260852669614,13.802535999853621
565.0,13.755754269577846,9.67340092862937
566.0,14.25867965249152,6.949603690121136
567.0,11.996935645061091,5.4978526861680574
568.0,10.622550672511332,5.35410812633472
569.0,9.192012288786483,4.609774830467199
570.0,8.458693941778126,5.1667977970102275
571.0,7.588512981904012,5.681353265145555
572.0,7.334382376081825,5.970102281667978
573.0,7.586152635719905,5.768686073957513
574.0,7.639024390243902,4.996538158929976
575.0,8.096367994437633,5.082491354545953
576.0,7.422692258430461,5.136052915667941
577.0,8.61850584597369,5.867003641154191
578.0,7.644028690099354,5.525161930726584
579.0,8.278465957952903,5.958951933105228
580.0,9.215800197704208,5.013282495107829
581.0,8.744092073675079,5.828907179890657
582.0,7.853792693013778,5.995334785854062
583.0,6.76442585083419,5.368635134862515
584.0,6.537258165385624,6.19520466420545
585.0,6.592702596380802,5.901612903225805
586.0,6.248175414933873,6.100883256528418
587.0,4.8168296429508075,6.5637480798771115
588.0,5.2620733580607695,6.478176164250122
589.0,5.418290809636206,6.97134614664119
590.0,6.5781461916001644,6.152864261361508
591.0,6.453107789142408,6.851927616050354
592.0,5.34521748904125,6.68018807837848
593.0,5.569302430137151,6.56264357901322
594.0,5.765925802007993,6.358642796587649
595.0,5.528124191326578,8.191516520245044
596.0,8.791206076780519,7.587497048478147
597.0,8.198598430095329,8.682074177080857
598.0,7.154287962234461,7.514555468135327
599.0,7.950078678206136,7.043666404405979
600.0,8.856235247836349,7.1560582218725415
601.0,6.688198269079464,10.226416207710464
602.0,8.565066876475216,8.26038552321007
603.0,8.472932823798285,7.431767262373084
604.0,10.314938556067588,8.365821812596007
605.0,6.919278033794162,6.669585253456221
606.0,6.681216514930126,6.5098122962796445
607.0,7.179817166835263,8.792233337079914
608.0,7.302274174815481,6.944119740736578
609.0,11.437937881682963,10.524071784496646
610.0,10.962286913191711,9.825783972125436
611.0,14.176846127908284,7.412292533063579
612.0,11.646157880933647,6.261586302498969
613.0,8.062326252294781,5.751376868607396
614.0,8.200321269341725,5.457907159716759
615.0,8.874526994117867,5.582256191225507
616.0,10.418792851522984,8.387134240005995
617.0,10.101457420104154,13.484545352365966
618.0,9.351803978869281,11.450413997227532
619.0,9.060095163163613,10.233486943164364
620.0,7.7305084110748945,8.119815668202765
621.0,7.99231950844854,6.2695852534562215
622.0,8.083870967741936,5.486943164362518
623.0,8.663680641414707,5.552002547675246
624.0,6.732454760031471,6.851730920535012
625.0,8.796872541306058,5.871026750590087
626.0,8.5308615263572,7.17877655389457
627.0,7.028127458693941,7.195161290322581
628.0,7.778265145554681,6.163198269079465
629.0,7.035503540519276,5.659421715184894
630.0,7.525413060582219,6.9309205350118015
631.0,6.990479937057435,6.47765538945712
632.0,6.554470536020496,7.451107547055619
633.0,7.7844933325263765,7.028799249530956
634.0,7.0356798459866905,6.034944939665632
635.0,7.604346610640866,7.720816293593634
636.0,7.11649273883735,6.910447485899885
637.0,8.09207598066764,6.081278333520663
638.0,7.242812183882207,6.61223633434491
639.0,6.861959087332808,5.147285601888277
640.0,7.841129032258064,5.854838709677419
641.0,10.149193548387096,5.538709677419355
642.0,8.091129032258063,5.1862903225806445
643.0,6.899429583005507,5.260287175452399
644.0,7.235129819040125,5.528363493312352
645.0,8.417564909520063,6.450472069236821
646.0,9.612686860739576,5.129543666404405
647.0,9.917998576299127,4.673950020606197
648.0,8.177331310179461,6.00141246112922
649.0,6.69521842568656,6.594895283054213
650.0,8.315754374133604,7.295028286688397
651.0,7.337656888089618,7.173684013337829
652.0,8.415522086096438,6.7537334682102586
653.0,7.075188265707542,6.356410400509535
654.0,7.291837136113297,5.303753137761792
655.0,7.047128245476003,8.716795923719605
656.0,8.705900865460269,8.48859166011015
657.0,7.3946124161702445,7.854407852834289
658.0,9.578659473230676,8.398171668352628
659.0,7.422033644299576,8.491581431943352
660.0,8.21908133827882,8.11675845790716
661.0,15.324332171893147,14.46239181746656
662.0,22.220384211906634,20.147478550822374
663.0,64.10936645311153,15.018554943613953
664.0,80.67361844816605,22.36586770821625
665.0,67.9627140234536,17.90406878723165
666.0,42.85311153572365,12.928037540744072
667.0,24.45236221947473,8.792244576823649
668.0,16.654445318646736,6.972619984264358
669.0,12.654655127196435,5.982214690633258
670.0,8.921348019931813,6.666953136032601
671.0,7.231327039076842,6.069117795396316
672.0,6.8247649020269,8.25783078709908
673.0,9.956914315686936,13.069395330606975
674.0,17.86662920085422,19.42270428234236
675.0,15.457390131505,25.68011689333483
676.0,19.942778464651006,26.54391367876812
677.0,15.079346970889063,15.92588512981904
678.0,10.350452399685288,30.214319433516913
679.0,10.00357985837923,30.12244295830055
680.0,19.63938593533401,46.6567091903638
681.0,19.8804840582968,35.91113109287775
682.0,19.671949346221574,28.54250496422015
683.0,22.304896781686708,15.845603386909445
684.0,15.571016447491665,12.325240717844967
685.0,14.134509759844141,15.482128807463189
686.0,16.40535011801731,13.308575924468922
687.0,14.035405192761605,13.043273013375295
688.0,16.986388670338314,11.405271439811171
689.0,17.96290322580645,12.930645161290322
690.0,16.72653788447112,9.91168417104276
691.0,16.035446361590395,16.162696924231057
692.0,14.670641767584753,18.660822348444253
693.0,20.111376951380702,17.581102418461757
694.0,19.435851732968086,17.094917849671475
695.0,16.19120490052827,15.839817728822446
696.0,13.54963470832865,13.02192499344348
697.0,14.302851148327152,13.178397212543553
698.0,12.3826083698625,9.361856056348582
699.0,12.648817953617325,10.12939380315462
700.0,21.217266119665805,17.03589505825934
701.0,18.99059608107602,13.68491251732794
702.0,22.024555354866592,14.73759075657416
703.0,19.081486399474436,13.656317389451893
704.0,13.798414324835564,10.929653580642547
705.0,13.904817667831592,8.608274019724444
706.0,10.555870674985819,6.816294666000994
707.0,8.917545239968529,5.786842006668914
708.0,9.207553107789142,5.352036266906447
709.0,9.506306360830358,5.744911998570535
710.0,10.248511166253103,7.407467801016187
711.0,9.723980209405072,10.367459500897738
712.0,7.68149246504872,8.110126288607798
713.0,7.272620272462916,6.564932575947524
714.0,7.153089056236184,5.050279120302724
715.0,7.968940841482147,4.82544677981342
716.0,7.67644524371511,5.94065415308531
717.0,8.494556217451574,6.553725975047769
718.0,8.35449777078416,6.344220898430182
719.0,9.675328762504215,6.713738713424
720.0,8.10125885129819,5.254642014162076
721.0,8.336624704956726,4.776416207710464
722.0,9.488435240343186,5.394640515529579
723.0,9.128491813719979,5.644094451313177
724.0,9.457494459382737,5.2372560759460836
725.0,8.557779487755884,5.137579650876267
726.0,8.360557721848044,6.214108472172988
727.0,7.351323407775021,5.925641025641026
728.0,6.681660917105448,5.8385482862272795
729.0,7.274600989097449,6.010790153984489
730.0,8.95824903525533,8.331815967929264
731.0,8.224531677344423,9.399896969015773
732.0,7.374957850960998,12.25244464426211
733.0,7.558409201603537,12.36210707729197
734.0,8.542261436439249,11.919148776741224
735.0,6.278820576224195,8.824435202877375
736.0,5.947278108725787,9.81921996178487
737.0,6.198677456820651,8.713757446330224
738.0,5.581120977108389,7.759420778539582
739.0,6.315138061518864,6.432782585890375
740.0,5.80863118654228,6.243535274062419
741.0,5.806331722303398,5.824993443482821
742.0,6.461153572365216,5.686306245550934
743.0,7.3039835525083365,5.737094900902926
744.0,6.001588550447717,5.5443539020643655
745.0,6.980337941628264,5.268164362519201
746.0,6.8159754224270355,6.582872503840246
747.0,6.983870967741936,6.284677419354839
748.0,7.658870967741935,6.261290322580645
749.0,6.783023159636063,5.889681555004135
750.0,6.927752728519841,6.388576025338416
751.0,6.673150557808308,6.280981561056304
752.0,6.31802689180738,6.708635941818475
753.0,6.675408017107467,6.174449756904517
754.0,7.307513768686073,6.598308418568056
755.0,8.145731707317072,5.563198269079464
756.0,8.07309205350118,6.495515342250196
757.0,8.723406766325727,6.846852871754524
758.0,8.192320445093852,7.166261099246936
759.0,7.969144093514668,5.844824098010565
760.0,9.20836236933798,5.815960436102056
761.0,8.708193773181971,6.556524671237495
762.0,9.008578518255938,6.457497341368309
763.0,9.794077951945773,7.149845669672578
764.0,8.99938152589608,6.056796874774845
765.0,7.637632391212248,5.83581011173458
766.0,5.587423591357501,5.229746125890893
767.0,6.121314300700611,6.173953767187441
768.0,5.308493499681541,7.203027237645648
769.0,5.360851972575025,8.474017459068598
770.0,7.675471132591511,7.683751077142107
771.0,7.993387284103256,7.784384249372447
772.0,6.632310516653553,6.421340526769322
773.0,6.814817728822449,5.826484582818178
774.0,7.021924993443482,5.764931999550409
775.0,8.324101757146604,5.289625716533663
776.0,9.425107714210782,5.714321306807538
777.0,7.333324903525533,5.430724776141771
778.0,6.7146856618335775,5.650718406953654
779.0,7.911955340751564,6.369487842343862
780.0,6.768330148739276,7.2092915214866435
781.0,7.512352478363493,6.227380015735641
782.0,10.897403619197481,5.843587726199843
783.0,13.001573564122737,5.45963808025177
784.0,10.181746656176239,4.932415420928403
785.0,10.12255535573789,5.827997264995691
786.0,14.104029448128584,7.511844816604848
787.0,12.654689783072946,7.142448765501479
788.0,12.030010115769361,5.868195271814469
789.0,11.308474766775317,6.663444606796299
790.0,14.960660896931548,8.03147128245476
791.0,13.160503540519276,8.690794649881983
792.0,10.741148701809598,7.900078678206136
793.0,10.165538945712036,7.553107789142407
794.0,7.984579071597167,7.451298190401259
795.0,7.515814319433517,7.5237608182533435
796.0,7.53273013375295,6.656372934697089
797.0,7.810031471282455,5.605527143981117
798.0,8.66549960660897,6.907199055861526
799.0,7.382711400846727,6.640734704582069
800.0,9.015933273388033,6.281465662582893
801.0,8.185907234648383,5.802455884005845
802.0,8.821513806151886,6.0994970214679105
803.0,7.960353677269492,5.872732381701697
804.0,8.363377168333894,5.161938481135962
805.0,8.190952006294257,5.933831628638867
806.0,6.434429208347383,7.058950582593384
807.0,6.728622944063542,6.335140122138548
808.0,6.8614888913866094,7.152650706230564
809.0,6.651830204937994,6.3737289723127635
810.0,5.35813570117268,5.2787681240867705
811.0,6.983065452774343,5.731475029036004
812.0,8.095949945674572,6.006815031283953
813.0,6.742310141995429,6.123824510134503
814.0,6.711280956127533,6.21092877749054
815.0,6.862245700798022,7.062530440972612
816.0,6.721848909024361,7.215503353190213
817.0,8.462868930178136,6.641292945187516
818.0,8.27274052331094,6.86982035142932
819.0,7.754908813976478,6.065407815368476
820.0,7.668199882991384,5.890375032782586
821.0,8.598741148701809,5.923682140047207
822.0,9.786939417781273,6.270338316286388
823.0,8.389929189614476,6.1052714398111725
824.0,7.213060582218725,5.988512981904012
825.0,7.437372147915028,5.75861526357199
826.0,7.295476003147128,5.634146341463414
827.0,6.4775767112509826,6.362234461054287
828.0,7.628717545239968,5.536349331235248
829.0,8.767095650219176,5.586203214566709
830.0,8.489763403394402,5.372566595481623
831.0,8.023894758532837,6.87366809036754
832.0,7.3924253493687,9.075671574688098
833.0,7.991738788355625,7.127889550784909
834.0,8.36989996628077,6.808886890712225
835.0,8.550466449364954,5.692780337941628
836.0,8.724926005020418,4.814132104454685
837.0,6.7607995204376,4.365535199130793
838.0,6.87984713948522,5.624217901165187
839.0,6.4831965831179055,6.396294631149076
840.0,6.562886366190851,5.729852759357087
841.0,6.149338728410324,5.564235135438912
842.0,7.494024202914839,6.315911730545877
843.0,6.289498332771346,6.736240680379154
844.0,8.120490052826796,6.644561837323442
845.0,8.84238507362032,8.311816717245513
846.0,7.688562263857307,8.30440770873501
847.0,8.568244265569207,7.317104007977335
848.0,7.9559553349875936,5.930385206191657
849.0,7.987117452440033,6.0204921422663356
850.0,7.027832919768404,5.367907361455748
851.0,6.744826907946498,5.006372934697088
852.0,6.123623131392604,5.071734854445318
853.0,6.570279307631786,5.558044846577498
854.0,6.135542879622346,5.918941778127459
855.0,6.671400472069237,5.5647128245476
856.0,11.683064516129033,5.40241935483871
857.0,51.15757277734067,5.399803304484658
858.0,69.9281077891424,6.417446892210858
859.0,66.20731426323479,4.963120527518639
860.0,41.409646510059574,4.802095275561051
861.0,26.470608070136002,5.715671949346222
862.0,15.76009775695063,6.185288616445186
863.0,11.329301435517014,7.54118876140906
864.0,9.11119449656035,6.060993766265206
865.0,7.905321874558696,6.8650366156267015
866.0,7.802936311000828,6.732754342431761
867.0,6.604032258064516,7.1177419354838705
868.0,7.512096774193547,7.067741935483871
869.0,7.7467741935483865,8.25670731707317
870.0,7.287365591397849,7.778833689258551
871.0,7.76263440860215,7.047481360758308
872.0,7.330382900603199,6.487361844816604
873.0,6.877122798523271,6.491023767735019
874.0,7.211968165587363,6.53229394523651
875.0,7.80913308432978,7.891723009484614
876.0,7.133038218010681,8.841485029525941
877.0,7.144410533080872,9.498240547807818
878.0,10.484470420741072,12.76696264658499
879.0,9.702502716271404,11.223371173803903
880.0,9.877749053988236,14.401296317110635
881.0,10.01970701734667,11.947697725825183
882.0,16.249428646360197,11.590292607995206
883.0,26.52384698962197,10.52635719905586
884.0,18.972387696227194,12.787568843430371
885.0,13.428129331984563,8.475767112509835
886.0,10.887490165224232,9.013690007867822
887.0,11.176582138029818,7.065732615142528
888.0,20.322594766890596,10.189986685226653
889.0,33.10586671393123,12.363473354602387
890.0,28.27166929094911,10.969161658546504
891.0,23.020320052540605,13.26910463879706
892.0,23.48766209409495,11.671525024113171
893.0,18.929718143821667,9.493827028185617
894.0,22.00664094595077,9.854209981066695
895.0,16.725943201828333,10.616262035892248
896.0,13.745928402832416,8.182002360346186
897.0,20.944335169158144,16.957034206286764
898.0,17.016061593795662,14.833739837398374
899.0,27.577385635607506,16.59186991869919
900.0,54.914420591210515,11.416627327563598
901.0,49.43596717994829,8.883766063467085
902.0,51.001854557716086,7.918687947248136
903.0,40.46313926042486,6.879543666404405
904.0,45.85715971675846,5.5774193548387085
905.0,42.651275710913794,9.309139784946236
906.0,27.393301112734626,6.818220561237871
907.0,17.518616762204488,6.59342287662508
908.0,16.12775842044135,7.856880596455734
909.0,18.402270428234235,10.230396013637556
910.0,16.274099883855982,10.143231800981603
911.0,11.67387883556255,9.277303210820126
912.0,10.312549391703326,9.348552294868142
913.0,13.906583788804342,10.734558639659916
914.0,17.971439288393526,9.212981816882792
915.0,22.27412210195406,10.378380309363054
916.0,18.085985782159824,8.87736219769228
917.0,23.48537134283571,10.924213196156181
918.0,20.07601900475119,15.136069731718644
919.0,14.340545502229215,10.072627477426847
920.0,9.868241886255536,8.643778104804946
921.0,8.977515720393512,7.58187369141937
922.0,8.7395259093519,8.634254818059915
923.0,7.610239145152141,7.4410137377549965
924.0,6.549887471867967,10.335062337012825
925.0,6.725806451612902,11.75867895545315
926.0,19.849001536098314,17.735023041474655
927.0,18.753029110936268,15.217938630999212
928.0,18.632690794649882,17.86205743509048
929.0,17.219728560188827,12.901140833988986
930.0,12.566565508973063,9.657175639728747
931.0,8.445281180922409,7.236858866284516
932.0,8.909894721067026,6.266659173504177
933.0,7.4525870143494055,5.867633284627777
934.0,7.205522460754561,5.499985013675021
935.0,7.307907159716758,5.843233674272227
936.0,6.654646697388633,9.101958525345623
937.0,6.243678580795024,7.495697988085871
938.0,5.89459274661871,7.461808287437712
939.0,7.085681503128395,5.648203514293208
940.0,6.8811472031771,5.898295305533701
941.0,7.628054400359672,6.340391892398187
942.0,6.595459143531528,5.862485481997677
943.0,5.347915027537372,6.651691581431944
944.0,6.695200629425649,7.253855232100708
945.0,6.52513768686074,6.54897718332022
946.0,7.564949795811322,6.9473380540257015
947.0,7.73346821025814,5.891686336218201
948.0,6.024127983215315,6.598516353827133
949.0,5.0112772095462885,6.477779026638192
950.0,5.185024914765277,6.190895807575588
951.0,6.632066988872654,5.5086583492563035
952.0,5.770400134876924,6.288947585328388
953.0,6.317995766363193,6.946701135214116
954.0,8.025698933444161,6.959021985461522
955.0,7.760011431429286,8.25066981030972
956.0,8.058514628657164,7.767156074732968
957.0,7.303450862715678,7.223823813096131
958.0,6.2826778123102205,6.623048619297681
959.0,6.661522523488014,5.399064051727217
960.0,7.428097442479086,5.430227766000733
961.0,6.65035779850886,7.179479974523247
962.0,6.820009337633255,6.260985408507045
963.0,9.298560736404953,10.000308372456288
964.0,9.618327987250096,8.10560733522968
965.0,12.620729689927172,6.63148187375174
966.0,16.134145332768465,12.324444713429763
967.0,22.86088100857967,15.980135626241053
968.0,25.707948372110447,13.865166160878196
969.0,19.769847514143343,10.55958937469559
970.0,15.61088756509685,9.286718369487842
971.0,12.47609681165936,8.641234873178224
972.0,10.120613690007868,7.5852871754524
973.0,9.64670300850474,8.03849424899779
974.0,7.4409754224270355,8.302188940092165
975.0,6.718687947248137,7.799825783972126
976.0,8.377892360720843,11.31442902101832
977.0,9.485317148102357,9.816488704057548
978.0,10.80456333595594,8.42122438275074
979.0,10.616797797010229,7.05377655389457
980.0,9.706566820276496,6.542511520737327
981.0,8.536751152073732,7.074078341013825
982.0,8.126941665730023,6.097513206698887
983.0,8.904521186916938,6.409073283129144
984.0,8.286534787006856,6.943649544790379
985.0,7.842210857592447,6.508438237608182
986.0,8.626750590086544,6.482848151062155
987.0,7.5914840208309915,7.532046382675809
988.0,8.963326589487092,7.975307219662058
989.0,8.964958225619121,7.419354838709677
990.0,9.876263534524746,7.778520849724625
991.0,7.909276535161665,7.460267505900865
992.0,7.965006931175302,12.404480911168559
993.0,8.707036079577385,13.661777378142444
994.0,10.102982191540917,13.189522990503722
995.0,13.051228835083336,10.37238316547778
996.0,18.16054754106645,17.596891818773507
997.0,38.99033521446564,14.561809964686294
998.0,30.30692063259717,15.226111231640662
999.0,55.84935544392665,16.37035070882435
1000.0,47.59691742823135,15.339216042284491
1001.0,34.77406847021324,19.85410841453328
1002.0,33.44371626275639,26.881201672704428
1003.0,53.90916846070269,20.509013409878868
1004.0,40.032671059750996,18.44864177716903
1005.0,29.006500754108387,21.11306990510694
