time,emg_right_hand,emg_left_hand
0.0,4.914285714285715,4.0
1.0,4.138095238095238,4.12962962962963
2.0,4.789342403628118,3.6111111111111107
3.0,4.9609523809523814,3.314814814814815
4.0,5.712288786482334,3.940860215053763
5.0,7.547587910491137,4.026227840743969
6.0,7.51259323839969,4.05298847234331
7.0,7.140705221350382,4.039039039039039
8.0,6.025549743291679,4.622566114501598
9.0,4.973796377022183,4.460476605637895
10.0,6.424997578223384,3.6426184248764892
11.0,7.753269398430689,4.078029642545771
12.0,8.371524750557008,6.21512641673932
13.0,7.300881526687979,5.758766831347476
14.0,7.1558171074300105,5.347573379831444
15.0,6.337716749007072,4.120168555652427
16.0,6.193755967949516,3.8455681487939555
17.0,5.433311191375707,3.2813038845296907
18.0,5.300700931346093,2.941386778483553
19.0,4.961730393988459,2.8537579053708084
20.0,4.827905785970302,3.702816180235535
21.0,5.296953405017921,4.058576548899129
22.0,5.240092165898617,3.1181771633384536
23.0,6.994956477214542,4.211111111111111
24.0,6.337192953321985,4.459159159159159
25.0,7.651571387055258,3.7914075365688267
26.0,7.3454989551763745,3.4848978010268334
27.0,8.290298362879009,3.4227453259711322
28.0,8.581226387678,3.9148503342051724
29.0,7.210258645742517,3.789256998934418
30.0,5.985953695631116,4.237818463624915
31.0,5.661435629177564,3.629758791049113
32.0,5.348154606219122,4.090816623074687
33.0,6.402063353676257,4.43986728664148
34.0,7.514966579482708,3.4855419936065095
35.0,6.459992250314831,3.8328247602441152
36.0,7.3697568536278215,4.015789983531919
37.0,8.28978978978979,4.25767703187058
38.0,7.804223578417126,4.199990312893538
39.0,7.935241693306209,4.443935871355226
40.0,6.059914753463141,3.9607672188317347
41.0,5.965974038554684,4.006441925796764
42.0,5.859523117587633,3.213589626492852
43.0,4.917991724443336,3.520482694676243
44.0,5.0239963465769915,4.108638131218776
45.0,4.717655443461895,3.8810409487828847
46.0,4.666636221474931,3.217043771882482
47.0,7.94416628610177,3.3539571829894412
48.0,6.716295096940258,4.109701637120992
49.0,4.865316007251491,3.412825728954761
50.0,4.8832620639072255,4.007010697333278
51.0,5.549311523505072,4.226802839706066
52.0,5.6046594982078854,3.6649769585253456
53.0,5.29516129032258,3.690015360983103
54.0,5.436559139784946,3.047516641065028
55.0,5.592882744495648,3.313824884792627
56.0,5.851100870455709,3.349564772145417
57.0,5.356388646711228,4.358640898963479
58.0,5.95238787174271,4.900198585682457
59.0,5.926910781749491,4.619006102877071
60.0,7.02809260873777,4.204179986438051
61.0,6.040364788751885,3.964033157581545
62.0,5.995044353108869,4.104461604461605
63.0,6.075479165801747,3.456352666030085
64.0,5.676846431685142,3.612100579842515
65.0,9.991673240060337,4.282655927817218
66.0,9.782161193451515,4.857357357357357
67.0,9.139736510704251,4.7826213310084285
68.0,6.749975782233847,4.409231812457619
69.0,5.842293906810036,4.417344764118958
70.0,5.503584229390681,5.068439407149085
71.0,5.753777971519907,4.942095321127579
72.0,6.786471955826794,4.571442410152088
73.0,6.418773612321999,3.9416351835706678
74.0,5.5525525525525525,3.3908020924149955
75.0,5.154412476993121,2.9798992540928024
76.0,5.030611256417708,3.4334980141431752
77.0,6.675627240143369,3.78494623655914
78.0,5.291218637992831,4.089605734767025
79.0,5.945655332752107,4.327763247118085
80.0,6.766734476411896,5.059938971229293
81.0,5.454155768671898,4.4022813135716365
82.0,6.249031289353869,4.514312699796571
83.0,5.225322096289839,4.595417998643805
84.0,5.115712486680229,4.540516322774388
85.0,4.157318608931512,4.056548483967839
86.0,5.538336723820594,4.132664922987503
87.0,5.096071878329942,4.00067809745229
88.0,4.673931996512641,4.534389227937615
89.0,5.538603119248281,4.431391068487843
90.0,6.285430591882205,4.594279763634602
91.0,5.67049307371888,3.878233071781459
92.0,5.85573476702509,3.9265232974910393
93.0,5.138888888888889,4.189964157706093
94.0,4.918458781362007,4.720430107526882
95.0,4.956989247311828,4.549283154121864
96.0,4.136149513568868,4.494086021505376
97.0,5.842268305171531,4.218817204301075
98.0,6.118714797747056,4.273835125448029
99.0,5.864464925755248,4.059856630824372
100.0,6.8937019969278035,5.3569892473118275
101.0,6.698488811392037,5.0486777099680324
102.0,6.239029351932578,4.424876489392618
103.0,6.128087765184539,3.3979947689625103
104.0,5.296570764312699,3.57175724111208
105.0,5.360650973554199,3.5721689431366848
106.0,5.6307759372275505,3.774314637217863
107.0,5.61735929477865,3.789935096386709
108.0,6.324372759856631,3.989998062578708
109.0,5.956989247311828,4.2857696406083505
110.0,5.833115373437954,4.357502663954277
111.0,6.364283638477186,4.318245665019859
112.0,5.930349704543253,3.545771578029642
113.0,4.958636055410249,3.142981691368788
114.0,4.984694371791146,2.5876198779424584
115.0,4.651264167393199,2.484403758597307
116.0,4.107381575123511,2.1769107817494913
117.0,4.660321611934515,2.2761794052116633
118.0,4.773297491039426,2.985663082437276
119.0,4.886200716845877,4.053763440860215
120.0,4.724014336917563,3.707885304659498
121.0,6.2168458781362,5.621863799283155
122.0,6.995519713261649,9.582437275985663
123.0,8.469049694856146,13.952654267170395
124.0,10.548144919112662,16.386273370144337
125.0,8.24157221737867,9.883052407245955
126.0,6.851520875714424,6.385522619393587
127.0,5.324324324324324,4.821272885789015
128.0,5.027656688947012,3.6565436404146077
129.0,6.500387484258452,3.309454615906229
130.0,7.39889082631018,4.3672624237140365
131.0,5.803836094158674,4.113290710064904
132.0,5.003584229390681,3.5474910394265233
133.0,6.566308243727599,3.259856630824373
134.0,5.847670250896058,2.82168458781362
135.0,5.328853046594983,2.801075268817204
136.0,5.506272401433693,3.4318996415770604
137.0,4.971198156682028,4.218714797747056
138.0,4.607014848950333,3.6528161802355354
139.0,5.776383526383526,4.27042872365453
140.0,5.00243907501972,3.7091390930100605
141.0,5.200156377575732,3.4212410567249276
142.0,6.743703380800155,4.354911362975879
143.0,6.413031925935151,4.4871715033005355
144.0,5.24589405073276,4.890006365812818
145.0,5.507803656190752,4.444555154232573
146.0,4.888940092165898,5.239375320020482
147.0,5.294828469022017,4.254992319508449
148.0,4.585202252944189,4.708141321044547
149.0,4.5909882232462875,4.51984126984127
150.0,9.498753822947371,5.641362560717399
151.0,6.973839277065084,5.31978522301103
152.0,6.6625468786759106,4.49860228892487
153.0,7.052625205851012,5.177104523878716
154.0,5.8753269398430685,4.6400755594303975
155.0,5.347670250896057,4.635304659498208
156.0,6.014336917562723,4.057347670250896
157.0,4.983870967741936,3.833333333333333
158.0,4.452508960573477,4.073476702508961
159.0,5.749491426910781,3.979148503342052
160.0,6.907391262229972,4.452654267170397
161.0,6.042405308534341,4.262617456165843
162.0,5.952654267170397,3.8795166133875814
163.0,6.094158674803836,3.8765862636830377
164.0,4.81274823210307,4.212438244696309
165.0,4.385304659498208,4.707885304659499
166.0,4.172939068100359,4.553763440860215
167.0,8.487455197132617,4.729390681003585
168.0,6.122759856630824,4.423835125448028
169.0,5.411290322580646,4.475806451612902
170.0,5.492831541218638,4.505376344086021
171.0,5.334229390681004,4.834229390681004
172.0,4.514336917562725,4.603942652329749
173.0,4.862007168458781,4.371863799283155
174.0,5.020076528141044,3.6612903225806455
175.0,5.266564952048823,3.7658868545965323
176.0,4.041436597888211,4.151312602925506
177.0,5.168119732635862,4.685871355226194
178.0,4.866317930834059,4.340695534243921
179.0,5.245955633052407,4.802964254577158
180.0,4.180083309115567,4.249782040104621
181.0,4.394701152765668,4.3166472924537445
182.0,8.519931221544125,4.053036907875618
183.0,6.6376537828150735,3.5103894216797444
184.0,6.812554489973845,3.8219509832413063
185.0,7.139784946236559,4.575268817204301
186.0,6.55134166424489,4.630097839775259
187.0,4.666351835706675,5.063256805192289
188.0,6.428606025380219,4.891843456359585
189.0,5.209822725951758,5.2891116923374994
190.0,9.181972294875521,4.122154412476993
191.0,6.832437275985663,4.738351254480286
192.0,6.850358422939069,5.148745519713261
193.0,5.431003584229391,5.925627240143369
194.0,5.846774193548387,5.853942652329749
195.0,5.939964157706093,5.831541218637993
196.0,6.194444444444445,5.224014336917563
197.0,9.070304175142885,6.442192192192191
198.0,7.830209241499563,6.1549937033808
199.0,6.725588491717524,5.048823016564952
200.0,6.186718977041558,4.209895379250218
201.0,6.674900707158772,4.238012205754141
202.0,6.941635183570668,3.8378378378378377
203.0,7.652499273467015,4.01743679163034
204.0,6.2012496367335075,3.965707643126998
205.0,5.346144531628402,4.823355613678194
206.0,4.9711808582776325,4.755933352707546
207.0,6.049670638380316,5.863581323258742
208.0,5.06698634117989,5.471786302431464
209.0,5.796934030804998,4.593868061609998
210.0,5.506441925796764,4.2709483677225615
211.0,5.941974232296813,3.873486389615422
212.0,5.207158771674901,3.990894119926378
213.0,5.990773031095612,4.494575220381671
214.0,6.876658916981498,4.509832413058219
215.0,6.766734476411896,4.312263876780005
216.0,5.403225806451612,4.6084229390681
217.0,5.481182795698924,4.057347670250896
218.0,4.381720430107526,4.21326164874552
219.0,5.091397849462365,4.485663082437275
220.0,5.639068100358423,3.990348182283666
221.0,5.233512544802867,3.780568356374808
222.0,5.165591397849462,3.7258576548899125
223.0,5.713389656938044,3.989375320020481
224.0,6.137923637923638,3.870995419382516
225.0,5.940191112771758,4.445511410027539
226.0,5.157819570722797,4.200354271322013
227.0,5.148802258479678,4.965768533510469
228.0,5.413930059091349,4.679453647195583
229.0,4.393587135522619,4.816332461493752
230.0,5.673835125448029,5.353046594982079
231.0,5.174731182795699,4.60573476702509
232.0,6.318100358422939,4.548387096774193
233.0,6.995519713261649,4.468637992831541
234.0,5.67831541218638,4.491935483870968
235.0,5.6093189964157695,4.803763440860215
236.0,5.798266007943427,4.6970599631889955
237.0,5.790710064903612,4.569408117795215
238.0,4.98048048048048,4.708539184345636
239.0,4.613896154218734,4.245398624430882
240.0,4.7138428751331976,4.425167102586458
241.0,4.368545965320159,4.533178339629952
242.0,4.3267461009396495,4.03003003003003
243.0,4.173229681294197,4.173617165552649
244.0,5.258209822725952,4.534389227937615
245.0,5.201467596628887,4.438511091736898
246.0,5.316235590429139,4.2232878039329655
247.0,5.900053279085537,4.505909134941393
248.0,5.29366463237431,4.2332413058219505
249.0,5.712099195970164,4.869950595757048
250.0,5.669282185411218,5.1318173011721395
251.0,6.081638089702606,4.844449287997675
252.0,5.374600406858471,4.467475540056185
253.0,4.633536762569021,4.9366947592754045
254.0,4.324179017727404,4.2769785914947205
255.0,4.809938971229293,4.302915819044851
256.0,5.655623365300784,4.056718008330911
257.0,5.131575123510607,3.037319577642158
258.0,6.561900610287707,2.9666279182408215
259.0,5.767097742904195,3.5458926668604085
260.0,5.694032742419839,3.853143466046692
261.0,4.175869417804901,4.029618328005425
262.0,5.540443669475927,3.7016371209919594
263.0,5.740143369175627,3.1742959549411163
264.0,4.410394265232974,2.997542242703533
265.0,4.265232974910394,2.6788786482334865
266.0,4.815924219150025,2.938146441372248
267.0,6.18305171530978,3.3364567332309267
268.0,5.7761136712749614,3.431822836661546
269.0,6.017900388868131,5.9103921894244476
270.0,5.661885387691839,9.346906353357966
271.0,4.8818899544706,7.072992347185895
272.0,4.7379623863494835,5.216552497197658
273.0,5.602028756867466,4.700037364553493
274.0,5.97044187044187,4.382373617857489
275.0,4.787774179709663,4.674098753131012
276.0,5.380894258313613,5.142156903447226
277.0,5.023473242828082,5.341073331395911
278.0,4.295545314900154,5.036584741423451
279.0,6.23200204813108,5.619098822324629
280.0,4.8778033794162825,4.976574500768049
281.0,4.854369576950221,4.532496782496782
282.0,5.7927761863245735,4.242502871535129
283.0,6.163566792599051,4.740555071200232
284.0,5.273539668700959,4.077714811585779
285.0,4.615712486680229,4.463140559914753
286.0,5.340501792114695,4.243727598566307
287.0,4.555555555555555,4.465949820788531
288.0,5.396154218734864,4.813087280829216
289.0,6.9122348154606215,4.400271238980917
290.0,5.686404146081566,4.430422357841713
291.0,6.473578417126804,4.630533759566017
292.0,5.511430785624334,5.0356969873098905
293.0,5.988932480867964,5.154727307953115
294.0,5.03971713649133,5.2373098905356965
295.0,5.057492976847815,4.080572507991863
296.0,5.671245208341983,4.32222429803075
297.0,6.432844826393213,4.252958027151576
298.0,6.252022529441884,4.407066052227343
299.0,8.419918074756785,8.9857910906298
300.0,7.866865944285298,11.098836163352292
301.0,6.8423423423423415,10.981061706868157
302.0,6.417199457522038,7.863581323258742
303.0,8.630194710839872,9.850697471665214
304.0,7.983628790080402,9.118763925215537
305.0,9.781797926959218,8.996609512738544
306.0,7.41930640317737,6.739513707255643
307.0,7.669790758500435,5.515693112467305
308.0,7.017243049501113,4.620749782040104
309.0,5.023152184442507,4.022086602731764
310.0,4.614695340501791,4.223336239465272
311.0,4.074857115179696,4.201128547902742
312.0,3.7887726436113534,4.468395815170009
313.0,6.4765572023636535,4.5415334689528235
314.0,6.068923762472149,4.75060544415383
315.0,5.425643846611588,4.749558544719835
316.0,5.8633958843636265,5.110963036769489
317.0,4.521751705622673,4.973940299746751
318.0,5.383224007417556,4.835802853544789
319.0,6.229208009853171,4.063945973623393
320.0,5.7186490638103535,4.177697513181384
321.0,5.562899074189396,4.442379706895836
322.0,6.572220146413694,4.809899530867273
323.0,5.401919430951689,5.049372413888543
324.0,4.867165552649423,4.692991378475249
325.0,4.5290128838515935,4.972391746585295
326.0,4.897026058316381,5.436936936936936
327.0,5.826649229875036,5.058074203235494
328.0,6.084156737382544,4.895645645645645
329.0,6.311343601666183,4.399883754722464
330.0,6.141334883270368,4.983095999225032
331.0,5.119926377990894,4.517267267267267
332.0,5.690787561755304,4.935604959798508
333.0,6.529085537150053,5.172551583841907
334.0,7.661944202266783,4.989053569698731
335.0,6.688947011527656,4.01065581710743
336.0,5.202799573767315,4.310471762084665
337.0,5.373728567276954,4.063983338176887
338.0,5.079482708514966,3.34001743679163
339.0,5.051390099777196,4.216603700474668
340.0,6.046304368885014,5.255255255255255
341.0,6.690593819626077,4.976460331299041
342.0,5.6784365010171465,5.393635571054926
343.0,5.3134989828538215,4.550348735832607
344.0,4.738738738738739,4.702145694081178
345.0,5.052165068294101,4.44471083987213
346.0,4.3737527850431075,4.139470115276566
347.0,5.1219122348154595,3.496706383803158
348.0,4.660394265232975,4.226702508960574
349.0,5.387217863024315,5.313063063063064
350.0,5.258573089218251,5.039596047660564
351.0,6.682601956795505,5.1098517872711415
352.0,7.2472149568923765,5.503850624818367
353.0,5.689770415576867,5.671752397558849
354.0,5.887024120895089,5.858883076625012
355.0,5.011164390196649,4.501574154799961
356.0,4.412840259614454,4.805894604281701
357.0,4.045577835900417,4.6318899544706
358.0,5.597670250896057,4.50179211469534
359.0,6.4252155381187634,4.301438535309503
360.0,6.256514579095224,5.76944686622106
361.0,5.415891698149762,5.497626658916982
362.0,6.761261261261261,5.242540928024798
363.0,5.990845684394071,5.7615034389227935
364.0,5.445340501792114,5.236559139784946
365.0,5.062724014336918,5.06989247311828
366.0,4.610880696364568,5.724449564772145
367.0,5.675064004096262,5.075934459805428
368.0,8.83125960061444,4.846210957501279
369.0,8.120378904249872,4.669969278033794
370.0,6.722375832053251,4.663389656938044
371.0,5.774193548387096,4.523297491039426
372.0,5.946236559139785,4.85663082437276
373.0,5.32078853046595,5.091397849462365
374.0,5.337813620071685,4.408602150537634
375.0,4.877240143369176,4.279569892473118
376.0,4.705811571940604,4.47178699436764
377.0,4.906221198156683,4.045033282130056
378.0,5.011802355350742,4.531925243215566
379.0,4.71899641577061,4.19626216077829
380.0,3.965232974910394,4.683256528417819
381.0,6.038376856118791,5.13389656938044
382.0,5.201536098310292,4.5006400409626215
383.0,5.600768049155146,5.19431643625192
384.0,5.671825050857309,4.61341179889567
385.0,7.041557686718977,4.460379734573283
386.0,5.707352513804127,5.460549258936355
387.0,5.865325002421777,5.50670832122445
388.0,4.356049597985082,4.866705415092512
389.0,5.24016758694178,5.207110336142595
390.0,5.038990603506733,4.999612515741548
391.0,5.658602150537634,5.578853046594983
392.0,4.711469534050179,6.227598566308243
393.0,4.874551971326165,5.53942652329749
394.0,4.821708805579773,4.578126513610384
395.0,5.483677225612709,4.429962220284801
396.0,4.5052794730214085,4.610142400464981
397.0,5.231788239852756,3.715344376634699
398.0,5.603797345732829,4.403371113048532
399.0,6.379056475830669,4.276663760534728
400.0,7.847767121960669,4.4962220284800924
401.0,6.7707089578057325,4.809785361398264
402.0,6.473119663442244,4.651284233542298
403.0,7.212366283334026,5.154047134692296
404.0,6.100516184387152,4.449299068653907
405.0,5.553939192648871,4.457043218333541
406.0,5.467548193354645,4.138864671122735
407.0,4.942555458684491,5.280901869611547
408.0,4.59493364332074,5.287852368497529
409.0,5.341397849462366,5.006272401433692
410.0,6.258064516129032,4.452508960573477
411.0,7.366439019664826,4.326140656785818
412.0,6.406785818076141,4.225346314055992
413.0,6.029109754916206,4.091615809357744
414.0,4.852368497529788,4.507725467402887
415.0,4.705754141238012,4.828683522231909
416.0,4.439964157706093,3.9238351254480284
417.0,4.440860215053763,3.6003584229390677
418.0,6.474014336917563,2.954301075268817
419.0,6.000896057347671,2.2867383512544803
420.0,8.338007362200909,2.902257095805483
421.0,6.952605831638089,2.8928848203041753
422.0,6.570691659401337,3.750581226387678
423.0,6.934539378087765,3.8300397171364913
424.0,7.075607865930446,3.7285672769543736
425.0,5.633900029061319,3.742226097064807
426.0,5.001549937033808,3.8192870289644483
427.0,4.452000387484258,4.029521456940811
428.0,5.01811488908263,4.002663954276857
429.0,4.625448028673835,3.255037295359876
430.0,5.912186379928315,3.731909328683522
431.0,5.150271238980916,3.810786593044657
432.0,5.994938486873971,4.030393296522329
433.0,5.845587523006879,4.546110626755788
434.0,4.86021505376344,4.769713261648745
435.0,7.562724014336918,4.768817204301076
436.0,7.058437469727792,5.195267848493655
437.0,6.316405114792211,6.127651845393781
438.0,5.82396036589585,5.2979401060046225
439.0,6.406361661200371,5.638544304673337
440.0,6.322356457840328,5.724738102157457
441.0,5.400062274255823,5.088175502691632
442.0,5.935694219565187,3.9226719807364967
443.0,5.267025089605735,4.065097355419936
444.0,6.292962317155865,4.388259226968904
445.0,6.413058219509832,4.624237140366173
446.0,5.943330427201395,4.820401046207498
447.0,5.322822822822823,3.730650004843553
448.0,5.325220381671994,3.0016225903322677
449.0,4.853022377215925,3.9044851302915817
450.0,5.159934127676063,3.880557977332171
451.0,4.327278891795021,4.110529884723433
452.0,5.295287222706577,4.732684297200426
453.0,6.514143867369674,4.8208736386155735
454.0,5.493183044795948,5.343680546906352
455.0,4.7510718091363255,4.931696904277549
456.0,4.29668285797318,4.302317986188954
457.0,5.718330773169482,4.8905273937531994
458.0,4.871863799283155,4.016129032258064
459.0,6.116196842003293,3.894798023830282
460.0,5.386951467596629,3.9680083309115566
461.0,5.298314443475734,3.831226387678001
462.0,5.728882107914366,3.8360699409086507
463.0,5.320982272595176,3.6729632858665116
464.0,4.263658820110433,4.928702896444832
465.0,3.978155574929769,5.653419548580839
466.0,4.156640511479221,6.466046691853143
467.0,5.382156349898285,5.457957957957958
468.0,5.121185701830862,4.708369659982564
469.0,5.6322774387290515,4.334471568342536
470.0,6.541049113629759,5.807468759081662
471.0,5.408069359682262,4.866996028286351
472.0,5.665770609318996,4.956989247311828
473.0,5.951612903225806,4.565412186379929
474.0,7.090865058606994,4.463600697471666
475.0,5.749733604572313,4.3657609222125355
476.0,6.633827375762859,5.243364332074009
477.0,6.432505085730892,5.350624818366754
478.0,6.06974716652136,4.83033033033033
479.0,5.637314734088928,4.507144241015209
480.0,6.244284607187833,4.14738932480868
481.0,6.196938874358229,4.472972972972973
482.0,7.01244793180277,4.026809067131648
483.0,5.841131454034679,4.329313184151894
484.0,5.4157706093189955,3.860529884723433
485.0,5.10752688172043,3.9477380606412864
486.0,5.708418095514869,4.161072362685266
487.0,5.2950692628111975,4.559478833672382
488.0,4.908602150537634,4.64247311827957
489.0,5.721121351766513,4.197926267281106
490.0,5.9936251920122885,4.930056323604711
491.0,5.074321556579621,4.9175371223758315
492.0,4.491986687147978,4.429237071172555
493.0,4.911315924219149,5.091858678955454
494.0,4.501587301587302,4.750793650793651
495.0,4.8845241554918974,4.586551528487012
496.0,5.284555984555984,4.5370033628098145
497.0,4.3277874648842385,4.8567761309696795
498.0,4.816671510219897,4.328925699893442
499.0,4.176256902063353,4.301559624140269
500.0,4.124551971326165,3.7562724014336917
501.0,4.781362007168458,4.529569892473118
502.0,5.07437275985663,5.737455197132617
503.0,4.602150537634408,5.874551971326165
504.0,5.913978494623656,4.789426523297491
505.0,5.638719364525816,4.476557202363654
506.0,5.856994090865058,4.232006199748135
507.0,5.022135038264071,4.212777293422455
508.0,4.717620846653105,3.94948173980432
509.0,3.835512932287126,3.620798217572411
510.0,5.186718977041558,3.4354596532015886
511.0,6.581710743001065,3.688607962801511
512.0,6.626416739319964,3.449239562142788
513.0,6.052189286060253,3.929259905066357
514.0,5.800736220091059,3.7464399883754718
515.0,6.143393393393394,3.3966385740579286
516.0,6.614259420711033,3.584520003874842
517.0,6.590477574348542,3.692870289644483
518.0,5.271941296134845,4.227259517582098
519.0,4.583551293228712,4.995350188898576
520.0,4.481061706868159,4.799670638380316
521.0,5.581032645548775,4.217039620265426
522.0,8.947883367238205,5.49300106558171
523.0,7.348493654945267,5.42257580160806
524.0,6.248619587329264,4.927685750266395
525.0,6.9604593072335,5.398661103499813
526.0,6.620831593317362,6.450885474794394
527.0,6.239360870765045,5.740264010282985
528.0,5.680164306350265,5.4937879191199865
529.0,5.926103658551477,4.53856062622666
530.0,5.306881834396066,3.4225829244804573
531.0,5.299961251574155,2.596580451419161
532.0,5.2476750944492885,3.8113193839000292
533.0,5.386636636636636,4.303981400755594
534.0,4.558461687493946,4.244284607187833
535.0,4.880461106267558,4.552213503826406
536.0,4.361522813135716,5.226799380025186
537.0,5.075333859204827,4.33138484106226
538.0,4.742646102323521,4.295984002435615
539.0,4.231090076251366,5.851397019138954
540.0,5.544393241167435,5.013415258576549
541.0,6.121658986175115,5.682334869431643
542.0,6.455100261551875,5.351641964545189
543.0,5.903903903903904,5.536205560399108
544.0,6.4618085827763245,4.987188801704931
545.0,6.117553036907875,3.787949239562143
546.0,4.758597306984404,3.3402111789208564
547.0,4.635910103652039,3.0665988569214377
548.0,5.8589315121573184,3.8968565339533083
549.0,5.510147244018212,3.9259662888695144
550.0,4.725951758209822,3.4257967645064413
551.0,4.141649714230359,3.0265184539378085
552.0,4.2973609554254715,2.6173426883104303
553.0,5.243710992098089,3.5894036894036896
554.0,4.473206847400396,4.440299054815184
555.0,4.150581918323853,3.735830530991821
556.0,4.2151783119525055,2.8133709746612974
557.0,6.580502622438106,2.6323895323895323
558.0,5.842319508448541,2.317793138760881
559.0,4.099385560675883,1.7820532514080902
560.0,3.779979518689196,1.8744495647721453
561.0,3.470071684587814,1.9959549411162314
562.0,3.858243727598566,2.4209165386584743
563.0,4.154480286738352,2.3094726062468
564.0,5.479390681003585,4.272401433691757
565.0,5.110893151215732,4.698537246924344
566.0,5.815751235106074,4.881526687978301
567.0,4.328126513610385,4.660297394168362
568.0,6.5937227550130775,5.678266976654074
569.0,8.490119151409473,5.014772837353482
570.0,11.982829603797345,4.003366269495301
571.0,8.370919306403177,4.055749297684781
572.0,7.063595853918435,3.978591494720527
573.0,5.664874551971327,3.7667344764118957
574.0,5.319117504601376,3.489731667151022
575.0,4.996028286350867,3.588055797733217
576.0,6.219703574542284,3.80618521747554
577.0,5.642109851787271,3.0442216409958345
578.0,5.201612903225806,3.226702508960573
579.0,6.116487455197133,3.926523297491039
580.0,5.28584229390681,4.613799283154122
581.0,5.369877942458587,4.6272885789014815
582.0,5.1138477186864275,3.9917901772740483
583.0,4.759880848590527,3.575196163905841
584.0,4.652838322193161,3.2062627143272304
585.0,4.361813426329555,2.99515644676935
586.0,4.572265814201298,3.129129129129129
587.0,5.776330939234165,3.6197021906699325
588.0,5.741660093272996,4.009671883865432
589.0,5.649334357398873,3.3775473630312343
590.0,4.808986175115207,3.936533538146441
591.0,5.180030721966205,3.979467485919099
592.0,5.519471083987213,3.8209580548290223
593.0,5.048266007943427,3.7039378087765185
594.0,5.861498595369563,3.312990409764603
595.0,5.7960621912234815,3.4819335464496755
596.0,4.932375693666016,4.994422994422994
597.0,4.507358049293533,4.258714936134291
598.0,4.22948547625967,4.608748149070729
599.0,5.462861017699727,5.339768339768339
600.0,9.112424405972792,6.655934736579897
601.0,7.251840550227647,7.478857890148213
602.0,6.655938196260777,6.463891310665504
603.0,7.177879492395621,5.260171461784365
604.0,7.916884626562046,4.235590429138816
605.0,6.7525913009783975,4.428654460912526
606.0,6.372420807904678,3.8161387193645258
607.0,5.8277874648842385,4.788893732442119
608.0,5.931366850721689,4.264070522135039
609.0,6.482974910394265,4.086021505376344
610.0,6.387992831541219,3.629928315412186
611.0,5.510922212535116,4.969122348154606
612.0,4.567010558946043,4.442385934321418
613.0,4.194105395718299,5.480674222609706
614.0,4.6207982175724105,5.717039620265426
615.0,4.574736026348929,4.684684684684685
616.0,5.8946042817010555,4.432141819238593
617.0,6.142497336045723,4.273854499660951
618.0,6.019228906325679,4.298411314540346
619.0,5.206747069650295,4.305119635764797
620.0,5.626222997190739,4.029351932577739
621.0,5.336021505376344,3.752688172043011
622.0,5.175627240143369,3.7311827956989245
623.0,5.660248958636055,4.152257095805483
624.0,5.153153153153153,4.271021021021021
625.0,5.848978010268333,4.282911944202267
626.0,5.924489005134166,4.593964932674609
627.0,5.317979269592173,4.143756659885692
628.0,4.982974910394265,4.263440860215054
629.0,5.011261261261262,4.78107139397462
630.0,5.5257919209532105,4.74447834931706
631.0,6.558461687493946,4.944226484549065
632.0,5.941417223675288,4.304998546934031
633.0,5.112951661338758,5.011091736898189
634.0,5.19940908650586,5.173229681294197
635.0,4.580887338951856,4.260001937421292
636.0,3.6885353095030515,3.6529109754916207
637.0,3.5577725190628415,3.6696198502650113
638.0,4.3320684740039574,3.9333277978439263
639.0,5.038188649478972,3.5266755234497165
640.0,5.651262783520847,5.3072445717607
641.0,6.72582997744288,5.002745602745602
642.0,6.059381962607768,4.3487358326068
643.0,5.082001356194905,4.156495204882301
644.0,4.498764893926184,4.5787803932965225
645.0,5.009105880073621,3.6276760631599343
646.0,4.543349801414317,4.598493654945267
647.0,3.9777680906713164,4.662598081952921
648.0,5.0906470987116155,4.217039620265426
649.0,5.850431076237528,4.1506345054732146
650.0,5.072411120798217,3.764748619587329
651.0,4.463406955342439,4.610796280151119
652.0,4.8136927249830475,4.552261939358713
653.0,5.576649229875036,4.580790467887241
654.0,6.658626368303787,4.428097452291
655.0,5.739707449384868,4.425070231521844
656.0,4.844134457037683,3.910006780974523
657.0,5.594110239271529,3.617189770415577
658.0,5.666133875811295,3.589944783493171
659.0,4.830693596822629,3.5182117601472442
660.0,4.4163034001743675,3.348299912816042
661.0,5.324978204010462,3.3620313862249347
662.0,4.955051826019568,3.4045820013561947
663.0,5.774387290516323,5.940739126222997
664.0,6.634505473215151,14.197520100745907
665.0,11.739755884917173,27.778068390971615
666.0,16.427855274629465,23.529400368110046
667.0,13.300397171364914,15.40574445413155
668.0,10.515596241402694,9.203017533662695
669.0,8.44463818657367,6.438971229293809
670.0,8.48755206819723,4.277729342245471
671.0,6.449530175336627,3.175046013755691
672.0,6.489998062578708,4.755158384190642
673.0,5.3287803932965225,3.860554102489586
674.0,5.71683757490209,3.7346487040035425
675.0,5.541214486375777,3.8355143161594776
676.0,4.895280303344819,3.8846272539820927
677.0,3.6452207968337,4.104948035593197
678.0,3.405226885872047,4.791631723889788
679.0,2.8943185120604475,5.276358616681197
680.0,5.780867964738933,4.8069165940133685
681.0,6.076038942167974,4.247495882979754
682.0,5.382601956795505,4.243020439794633
683.0,5.492734670154025,4.098929574736026
684.0,4.956940811779521,3.0042138913106653
685.0,6.024871645839388,3.3535067325389902
686.0,5.677758403564855,4.298169136878814
687.0,5.646057347670251,3.600358422939068
688.0,5.8593189964157695,3.4991039426523294
689.0,4.995519713261649,4.197132616487455
690.0,4.146057347670251,3.9740143369175627
691.0,4.624551971326165,3.5232974910394264
692.0,4.242498719918075,3.277291346646185
693.0,4.45078050400631,3.8014980418206226
694.0,3.883979601721537,4.212180152502733
695.0,4.324158259642131,3.8233839830614027
696.0,4.961362283942929,4.312677654613139
697.0,4.123640691382627,4.774157567705955
698.0,4.380235535074244,4.324935995903738
699.0,5.792114695340501,2.9480286738351253
700.0,6.153807032839291,3.915407342826698
701.0,5.75387484258452,3.644531628402596
702.0,5.848711614840647,3.7604378572120507
703.0,4.914051147922115,4.0540540540540535
704.0,4.66535890729439,4.0503245180664535
705.0,4.508064516129032,3.954301075268817
706.0,4.891577060931899,3.226702508960573
707.0,4.530465949820789,3.327956989247312
708.0,4.294726062467998,2.950768049155146
709.0,4.6267537122375835,2.758986175115208
710.0,4.191961085509472,2.0479518689196112
711.0,3.9868919610855094,2.1629288274449565
712.0,3.83215565796211,2.3162314388120837
713.0,4.173220686123912,2.44905273937532
714.0,4.9119303635432665,3.0552227342549925
715.0,4.585094310900763,3.1089467347531863
716.0,4.782767329541523,2.4495066495066493
717.0,4.754734919251049,2.231025726187016
718.0,5.573604018765309,2.851623974204619
719.0,4.932577739029352,3.8905841325196167
720.0,4.099680325486776,3.8062336530078467
721.0,4.636757725467403,4.167901772740482
722.0,4.006102877070619,4.84694371791146
723.0,4.5245568148793955,4.819529206625981
724.0,4.615325002421777,4.12302625205851
725.0,4.416642448900514,3.66177467790371
726.0,5.413467153789734,3.705746529940078
727.0,5.385714977650462,3.7463272027788155
728.0,4.259613761226665,3.545654640815931
729.0,6.125774622548816,3.4372538437054567
730.0,5.834029421126195,3.157791893275764
731.0,6.025719267654752,3.152475055700862
732.0,7.285842293906811,3.5358422939068097
733.0,6.716845878136201,3.8351254480286734
734.0,5.96527172333624,4.667635377312797
735.0,6.836578513997869,3.8642836384771866
736.0,6.4433788627337005,3.5584859052600986
737.0,5.608786205560399,3.5942071103361424
738.0,5.34471568342536,3.9673544512254186
739.0,8.866487455197133,5.236559139784946
740.0,7.879928315412187,4.547491039426523
741.0,7.39621095750128,3.961418330773169
742.0,5.999180747567844,4.2159242191500255
743.0,7.562314388120839,3.959216589861751
744.0,8.660189452124936,5.889554531490015
745.0,7.705893912345525,6.705094034126292
746.0,6.66661823113436,6.194226484549064
747.0,6.537053182214473,6.638331880267364
748.0,7.391891891891892,7.164971423035939
749.0,6.906519422648454,7.026930155962414
750.0,6.022570958054828,6.5047466821660365
751.0,5.987987987987989,8.022086602731763
752.0,5.228470405889761,6.3497529787852365
753.0,5.620628693209338,5.676474861958733
754.0,5.357357357357357,5.034922018792987
755.0,5.132616487455197,4.957885304659499
756.0,6.027535600116245,4.586869127191708
757.0,7.686258839484646,4.654097646033129
758.0,6.255909134941392,5.146541702993316
759.0,6.399907972488617,4.49396977622784
760.0,8.85386999903129,3.409183376925312
761.0,7.383875811295166,2.895621427879492
762.0,7.728470405889761,3.659352901288385
763.0,5.663905841325196,4.262302625205852
764.0,5.723529981594497,4.147728373534825
765.0,5.849123316865253,4.057735154509348
766.0,6.326891407536568,4.727792308437469
767.0,4.939479802383028,5.776276276276276
768.0,6.5830911556718,5.103191901578999
769.0,5.499564080209241,4.4116535890729445
770.0,5.954054054054055,3.322341927180637
771.0,5.629695824857115,4.239939248003764
772.0,5.559096192967161,4.633592117463085
773.0,6.11870580257677,4.825756632208245
774.0,6.544531628402596,6.035371777307261
775.0,6.265814201298072,5.231715586554296
776.0,6.3727598566308234,4.6257870773999805
777.0,5.191175046013756,4.08621524750557
778.0,6.644870677128742,4.141673931996513
779.0,6.609125254286544,4.321345539087474
780.0,5.530369078756175,3.595708611837644
781.0,6.148600213116342,3.197132616487455
782.0,6.005327908553715,3.1893344957861087
783.0,4.11423520294488,3.7026784849365493
784.0,4.689286060253802,3.2684539378087765
785.0,4.279230843746973,3.164244890051341
786.0,3.6969949211884696,2.848793263309392
787.0,3.518300327977747,3.0359557714396423
788.0,3.4694572452636967,3.342447516641065
789.0,3.1545314900153603,3.402406554019457
790.0,4.920993343573988,4.0261136712749614
791.0,5.648566308243728,4.208602150537634
792.0,4.360573476702509,3.9304659498207886
793.0,4.763620071684588,3.397132616487455
794.0,4.212903225806452,3.435125448028674
795.0,3.8637992831541217,2.8189964157706093
796.0,4.884408602150538,3.174731182795699
797.0,6.249103942652329,4.410394265232974
798.0,5.301922890632568,4.153371113048532
799.0,6.17727404824179,4.531579967063838
800.0,5.668386128063547,4.1645355032451805
801.0,5.247723529981593,3.5876440957086118
802.0,5.800833091155671,3.166133875811295
803.0,5.703380800154994,3.51549937033808
804.0,5.133924246827473,3.5000726532984596
805.0,5.122517678969292,3.151918047079337
806.0,5.370386515547805,3.2289547612128255
807.0,5.413881623559043,3.493800251864768
808.0,5.54187251767897,5.655889760728471
809.0,17.259323839969,25.550469824663374
810.0,16.532887726436115,21.733120216991185
811.0,13.965223287803934,14.59367431948077
812.0,10.618618618618617,10.277656688947012
813.0,7.411459846943718,6.749491426910782
814.0,5.9568197229487545,4.169427492008137
815.0,5.983338176886564,4.513029158190449
816.0,5.475104136394458,4.133149278310569
817.0,5.73188511091737,3.3943863218056762
818.0,7.342197035745422,4.2809745229100065
819.0,6.222972972972973,5.120434951080112
820.0,6.03487358326068,4.597403855468371
821.0,6.254141238012205,3.519713261648745
822.0,5.19202266782912,3.7799089411992632
823.0,5.07764215828732,3.5996318899544706
824.0,5.108761987794246,3.7123898091640024
825.0,4.983144434757339,3.854402789886661
826.0,5.814346604669185,3.8512544802867383
827.0,6.423835125448029,3.7249103942652333
828.0,6.3522474086990215,3.98256320836966
829.0,5.100406858471374,4.079095224256514
830.0,4.650561852174755,3.910515354063741
831.0,4.562902533870275,3.073601251020606
832.0,5.137186033960227,2.74020564343145
833.0,4.207987711213518,2.8062467997951868
834.0,5.568151561699948,2.898643113159242
835.0,4.680133128520225,2.67916026625704
836.0,4.804429083461342,3.8116743471582177
837.0,5.3767537122375835,3.753968253968254
838.0,4.942242703533026,3.779800307219662
839.0,4.746259393033586,3.654491357717164
840.0,4.8493841768035315,3.822765392120231
841.0,5.804850472592408,4.622864338993372
842.0,6.648866608544028,4.589363557105493
843.0,7.037246924343698,4.814395040201491
844.0,6.096410927056088,4.859488520778843
845.0,5.535212631986825,4.272934224547128
846.0,6.383996900125933,4.16959701637121
847.0,6.447689625108979,3.867044463818657
848.0,5.700547321515064,3.5589702605831635
849.0,4.901651651651651,3.4308098421001647
850.0,4.1914172236752885,3.433594885207788
851.0,4.113581323258742,3.5058122638767797
852.0,5.062409183376925,3.3580112370434954
853.0,6.235057638283445,2.9446866221059764
854.0,6.376997965707643,3.052697859149472
855.0,6.1710258645742515,2.9474958829797537
856.0,5.513440860215054,2.6057347670250897
857.0,5.082437275985663,2.440860215053763
858.0,5.792114695340501,2.326164874551971
859.0,4.650179211469534,2.6014080901177676
860.0,5.9433691756272395,3.4194316436251917
861.0,6.004838709677419,3.880414746543779
862.0,5.550358422939068,3.8671786994367636
863.0,5.580286738351255,4.03394777265745
864.0,5.1210189452124935,3.931720430107527
865.0,6.258090117767537,4.278136200716846
866.0,6.40099846390169,4.363978494623655
867.0,6.788760880696364,5.618817204301076
868.0,7.460361744232712,6.034718589557299
869.0,9.175239755884917,5.422018792986535
870.0,8.653274241983919,4.408214666279182
871.0,9.640705221350382,12.297297297297295
872.0,8.611498595369563,21.565048919887627
873.0,12.562941974232295,24.443088249539862
874.0,13.181342632955538,18.965756078659304
875.0,15.635522619393587,19.592390777874648
876.0,16.785285285285283,17.206529109754914
877.0,12.08420517291485,10.899447834931706
878.0,9.113920371984888,7.4747166521360064
879.0,8.032548677709968,5.4492153443766345
880.0,7.887242080790468,3.510897994768963
881.0,6.6975201007459075,3.7648454906519424
882.0,6.770803061125642,3.085827763247118
883.0,6.650392327811682,6.0683425360844705
884.0,7.812990409764604,5.540710064903613
885.0,6.629613484452194,4.284243921340695
886.0,6.051559624140269,3.5783202557396105
887.0,4.56386224934612,2.996149375181633
888.0,4.580331022266506,2.858404948727529
889.0,4.425881872656067,2.5819681432584654
890.0,4.158806271709498,2.7319978965140255
891.0,4.098438300051203,2.2938300051203275
892.0,5.467229902713774,3.2298003072196613
893.0,5.0957757296466974,2.5284690220174086
894.0,5.950060198447295,2.3416587094006447
895.0,6.9831202169911855,2.1995543931027806
896.0,7.798459750072652,2.9044366947592755
897.0,6.2854305918822035,4.35365203913591
898.0,5.862249346120313,3.6665213600697473
899.0,6.003051438535309,2.9980383609415866
900.0,6.186113532887726,3.9170299331589655
901.0,5.7462946817785525,5.1792841228325095
902.0,5.515329845975007,4.61721398818173
903.0,5.850770124963674,6.61333914559721
904.0,6.0374648842390775,6.595345345345345
905.0,5.280829216313087,6.547224643998837
906.0,6.452872227065775,5.981207013465077
907.0,5.500878758943275,4.664435864435864
908.0,5.120099362034846,4.13518218679509
909.0,6.08693140144753,3.583720125655609
910.0,5.8431242302210045,3.068911307620985
911.0,5.222637383927706,2.8803337900112096
912.0,4.602102102102102,2.475394749588298
913.0,3.972997190739126,3.5283590041654556
914.0,4.216652136006974,4.140753656882689
915.0,4.971931609028383,3.4465756078659306
916.0,5.048241790177274,2.7967645064419258
917.0,6.700232490555071,2.6337305046982467
918.0,6.635958539184346,2.419015789983532
919.0,6.355468371597404,2.486752881914172
920.0,6.544899738448125,3.3193354644967545
921.0,6.01438535309503,4.090671316477768
922.0,6.362031386224935,4.209677419354838
923.0,4.897413542574833,4.433691756272401
924.0,4.298040436750114,3.6492160363128106
925.0,3.6466468772920386,3.450104482362547
926.0,3.6992194959936895,3.096019983116757
927.0,4.020199692780338,3.170890937019969
928.0,4.165181771633384,2.7797235023041473
929.0,3.799539170506913,2.3186891961085507
930.0,3.742063492063492,2.2534306195596514
931.0,5.996031746031745,2.7158730158730156
932.0,5.981705207511659,2.9092539544152447
933.0,5.817785527462947,3.4365010171461785
934.0,6.187251767896929,3.961542187348639
935.0,5.758500435919791,3.4789789789789793
936.0,4.167780683909717,3.8676256902063355
937.0,4.760774138193493,3.446815709718935
938.0,4.396249705927125,3.7387013741852453
939.0,5.48365231591038,4.239446589446589
940.0,4.921933684836911,4.294006448845158
941.0,5.341343186504477,4.1290820774691745
942.0,5.006974716652136,3.8938293131841517
943.0,5.0899932190254775,3.502034292356873
944.0,5.048387096774194,4.011648745519713
945.0,4.847670250896057,4.50268817204301
946.0,4.941756272401434,4.051075268817204
947.0,5.910418482999128,4.017412573864187
948.0,5.309599922503148,3.97958442313281
949.0,5.418943136685072,3.465150634505473
950.0,6.089847912428557,3.372808292163131
951.0,6.129904097646033,2.869659982563208
952.0,5.435386999903129,3.3492444056960187
953.0,5.264022086602731,2.7832025573961054
954.0,4.5072411120798215,2.9346120313862247
955.0,6.289014821272886,3.205657270173399
956.0,5.554514191610966,2.452920662598082
957.0,5.140898963479609,2.3363847718686426
958.0,4.897098711614841,2.866342148600213
959.0,5.971398818173012,3.290249927346702
960.0,4.850988084859052,3.0119635764797055
961.0,5.8022861571248665,2.4817882398527558
962.0,5.606219122348154,2.7956747069650296
963.0,6.7421776615325,3.6805434466724787
964.0,5.725031483095998,3.027995737673157
965.0,5.495519713261649,2.7885304659498207
966.0,5.621863799283154,2.696236559139785
967.0,6.197423229681294,3.3489537925021793
968.0,5.267170396202654,3.293204494817398
969.0,5.022474086990215,3.385401530562821
970.0,5.2447931802770515,3.2975152571926767
971.0,5.410927056088346,2.610675191320352
972.0,5.277923084374697,2.904339823694662
973.0,6.012786980528916,3.0871839581516998
974.0,5.33793470890245,3.2944880364235205
975.0,6.523563886467112,6.771432723045627
976.0,92.61549452678484,11.542671703962027
977.0,122.84045335658239,8.887823307178145
978.0,118.5052310374891,6.37198488811392
979.0,143.0196406083503,5.566816816816817
980.0,144.39794633343018,4.490894119926378
981.0,93.56156156156158,4.613218056766444
982.0,58.64283638477187,4.286060253802189
