time,emg_right_hand,emg_left_hand
0.0,7.425,7.75
1.0,6.924999999999999,5.35
2.0,6.267857142857142,4.5214285714285705
3.0,7.391666666666667,4.483333333333333
4.0,7.378343823760819,5.240952006294256
5.0,7.597738001573564,7.820416994492525
6.0,5.613788355625492,5.972305271439811
7.0,7.84986231313926,5.83119590873328
8.0,6.131313926042486,9.440204563335957
9.0,8.624272226593234,9.51443745082612
10.0,9.334638080251771,7.545653029110936
11.0,9.304012588512983,5.254681353265145
12.0,8.285051140833989,4.626789929189615
13.0,7.656451612903226,4.055645161290323
14.0,6.1540322580645155,6.829838709677419
15.0,6.692682926829268,5.462627852084973
16.0,5.14795436664044,4.3603461841070015
17.0,5.810267505900865,4.308398898505113
18.0,5.159677419354838,3.855704169944925
19.0,5.749449252557041,3.547993705743509
20.0,7.590696302124312,3.7968135326514556
21.0,7.259244689221085,3.520259638080252
22.0,5.916601101494885,2.925255704169945
23.0,6.91266719118804,4.2399685287175455
24.0,7.212903225806452,4.516129032258064
25.0,5.95861526357199,3.612116443745083
26.0,6.740125885129819,2.9279307631785993
27.0,6.172738001573564,5.283477576711251
28.0,6.499654377880184,5.0478494623655905
29.0,7.400230414746544,3.7376344086021502
30.0,6.8993087557603685,4.779301075268817
31.0,5.632384511633135,5.600793338578547
32.0,5.18103293244914,5.461893522161028
33.0,7.267014162077104,6.111054287962235
34.0,9.265578284815106,5.407022029897718
35.0,9.08950957251508,7.022846652429658
36.0,9.5711119853134,5.751391854932374
37.0,23.596709565021918,5.000738076505188
38.0,16.03585478251096,4.751751526731857
39.0,11.966786557266493,7.47532501592297
40.0,16.01243864973212,7.099404293582106
41.0,22.96947660260013,6.302337866696639
42.0,174.4170731707317,6.901399348094864
43.0,104.17922895357985,7.896243115656962
44.0,64.51972200367165,10.852480236783933
45.0,40.23783110411749,9.735445468509983
46.0,22.478427545441704,6.142526290913388
47.0,9.914079364118702,6.650833037929813
48.0,9.467582561681695,5.055156880884654
49.0,8.431640743206438,4.022893340595937
50.0,6.4598014888337465,3.602398676592225
51.0,7.5347888801468645,5.182677681615526
52.0,5.274921321793863,3.985424862313139
53.0,5.4088316286388665,7.185857592446892
54.0,4.021754523996853,8.00381589299764
55.0,4.552006294256491,5.251101494885917
56.0,6.8354838709677415,3.821774193548387
57.0,5.483064516129032,3.3088709677419352
58.0,7.979032258064515,3.064516129032258
59.0,8.665047206923681,2.639004720692368
60.0,7.674744295830054,3.6076514555468133
61.0,6.072731949403861,3.0600395408420584
62.0,10.634753071476123,2.968729447840384
63.0,7.127240815832476,5.740442615344268
64.0,5.209647158506325,5.657082047247272
65.0,25.142982509229558,9.62027981197926
66.0,20.11309992132179,8.961585365853658
67.0,15.863116780937393,9.251626016260161
68.0,13.473482634595932,7.833823198831066
69.0,9.837482127500516,6.577292319595578
70.0,7.257499915048449,4.4840434847387804
71.0,6.708720734190516,6.3998090114863215
72.0,6.533162210413231,6.920334613270042
73.0,6.420498155897859,10.800873911857757
74.0,7.089569517814994,12.552935446405154
75.0,6.84848263459593,14.087640028474016
76.0,10.282002360346183,14.185955940204563
77.0,17.538985051140834,20.249429583005508
78.0,25.899134539732493,15.53170731707317
79.0,18.699295642726014,11.705552433404517
80.0,12.391819339852384,11.736332471619647
81.0,8.030591772507586,11.56398130455959
82.0,5.97862200741823,9.798227867071297
83.0,5.199145779476227,10.606745719530927
84.0,4.674073657787269,8.837704657000486
85.0,5.423543516541156,7.915754374133603
86.0,5.6024783634933115,5.99213217938631
87.0,6.982592446892211,6.382376081825334
88.0,8.34734461054288,6.646026750590086
89.0,6.348269079464988,5.582690794649881
90.0,6.648800157356412,5.101888276947285
91.0,8.519236821400472,6.069315499606608
92.0,7.1976199842643585,7.363217938630999
93.0,7.302439024390244,6.935641227380016
94.0,6.08617230527144,5.898741148701809
95.0,7.287018095987412,7.216601101494886
96.0,7.68473642800944,5.49618410700236
97.0,8.339948859166011,5.409382376081825
98.0,6.836506687647521,6.81880409126672
99.0,7.179464988198269,7.246144767899292
100.0,6.796169120677382,7.346031433816642
101.0,5.696215952942939,7.802490539882356
102.0,5.311011202277921,7.942777528005694
103.0,4.516795923719606,7.994372634970589
104.0,4.165164287587576,7.651395601513618
105.0,6.816837136113296,7.279307631785995
106.0,6.326042486231314,5.921557828481511
107.0,4.768430369787569,6.5453579858379225
108.0,5.187844217151849,6.020259638080251
109.0,8.956392604248622,6.169531864673485
110.0,9.045880633921545,7.126682214978832
111.0,8.713262897605935,9.436324978457158
112.0,7.594239631336405,10.976305683563748
113.0,5.931874039938556,10.03110599078341
114.0,9.904915514592933,15.125115207373272
115.0,8.442473118279569,16.39128264208909
116.0,8.936577894473618,11.946738470331868
117.0,8.86316221912621,10.284160325795733
118.0,9.42265487974781,8.647971661905022
119.0,7.723456996653344,8.926969982913846
120.0,8.380315287881203,8.519014945373975
121.0,7.703135888501741,7.813896069836275
122.0,7.210621557828482,8.197167584579072
123.0,6.569118804091267,7.5974036191974825
124.0,6.344748229740362,6.561014948859166
125.0,7.307710464201416,7.664299763965381
126.0,6.378048780487806,8.091424075531076
127.0,5.634500393391031,7.687883556254917
128.0,7.093882769472856,6.905232100708104
129.0,6.446614963845491,6.531993930538384
130.0,6.17342549923195,7.292511520737326
131.0,8.92058371735791,6.967626728110599
132.0,8.018533400771796,6.82750927278858
133.0,8.253375669701398,7.1918230864336286
134.0,8.665558615263572,8.58259244689221
135.0,8.300924468922108,9.361054287962233
136.0,6.533123524783635,9.836978756884342
137.0,10.236742722265932,9.18450039339103
138.0,7.009978409236455,8.071985984300953
139.0,7.791377874956544,7.288550033849925
140.0,7.5704037289810255,6.075008691197189
141.0,7.5822219274330775,5.289982709091907
142.0,6.756836770168151,3.901846193255631
143.0,8.515027537372147,3.2448465774980333
144.0,8.518425686561013,4.9320969615226105
145.0,7.700375666819411,7.1492779185147395
146.0,7.644050933331027,6.104930068620076
147.0,7.9474849565379815,6.681834876770653
148.0,7.575207859858291,8.344959531225609
149.0,8.23384048906893,7.580313866995294
150.0,7.532552998876897,7.487663727778635
151.0,7.837480275992343,7.62369024311827
152.0,7.309287774905398,7.426098684949983
153.0,6.768970814132104,7.266513056835637
154.0,6.980032595256828,7.576926679405043
155.0,8.373349630961748,6.790844292083474
156.0,8.524548536960024,6.859358023303734
157.0,7.26187104267356,6.7066951406841255
158.0,6.046066089693156,6.888985051140834
159.0,6.764260424862313,7.562981904012588
160.0,8.42423850736203,6.792973286875725
161.0,7.836430819377318,6.3685558802592634
162.0,10.350070248398337,6.278229553032857
163.0,8.054706642688547,6.461665917350418
164.0,6.273429245813196,8.523820763553257
165.0,6.157067925517965,9.276887340301974
166.0,6.0450957251508,11.415390955752875
167.0,6.762270774072505,11.033667355461219
168.0,6.84997881740604,9.215889539256967
169.0,6.775107426012225,9.8892193565679
170.0,8.235376949302992,8.75023704331336
171.0,6.898727026972503,9.050649599548104
172.0,6.20889063729347,8.270790715971675
173.0,6.556903075943202,9.472664943239293
174.0,8.126287887302835,7.765994155333258
175.0,7.031121913753699,8.662304709452624
176.0,7.995271814469296,7.917118129706642
177.0,6.840672885991532,8.267371023940655
178.0,6.870259638080252,5.472856018882769
179.0,7.396420141620771,5.088040912667191
180.0,7.174822974036192,5.694020456333595
181.0,6.261200404630775,5.074873552882995
182.0,5.413133640552996,3.5473502304147466
183.0,5.705284768994447,5.868764031667258
184.0,6.664217915575115,6.684677059106642
185.0,8.433318635206913,7.484274013424288
186.0,6.838318303778571,5.359187697956384
187.0,6.8159333454376725,4.8372551393007726
188.0,7.25098347757671,5.688080251770259
189.0,6.612037765538945,6.4534815106215575
190.0,11.323760818253342,7.610208497246262
191.0,7.8094610542879614,8.513571990558614
192.0,5.925295043273013,5.594689221085758
193.0,6.568548387096774,4.136290322580645
194.0,8.296774193548387,3.6419354838709674
195.0,7.531451612903226,3.8733870967741932
196.0,5.799193548387096,3.800806451612903
197.0,6.0072580645161295,3.4177419354838707
198.0,4.887096774193548,4.850806451612903
199.0,5.251612903225807,4.114516129032258
200.0,5.671813532651456,5.689732494099134
201.0,6.700702051685529,7.188910912061974
202.0,5.3027703806814745,7.468245778611632
203.0,5.257649942504388,8.116036736670097
204.0,6.45111057314047,6.546462506808691
205.0,7.010685105610361,7.867251709737941
206.0,7.83412667191188,7.524940991345397
207.0,8.435169158143195,5.578520849724626
208.0,7.454150806983223,7.322273374869756
209.0,8.23730357028941,8.327541093414421
210.0,8.164078614412997,6.949716652136008
211.0,7.478410274948433,6.635745422842197
212.0,8.794167484332707,6.784172213125792
213.0,8.618987673747705,6.662335618747893
214.0,10.16944662995017,8.470034843205575
215.0,7.2969426456051165,8.590007435522777
216.0,8.875516956162118,8.674094984480508
217.0,8.468864468864469,9.710703406218748
218.0,6.499255583126551,10.335689644737638
219.0,7.15230285057193,10.886491557223264
220.0,5.391227380015735,8.31294256490952
221.0,5.354622344610542,8.609972462627852
222.0,6.688198269079464,9.630389457120378
223.0,7.322600314712824,7.901022816679779
224.0,6.178638867033831,9.198898505114084
225.0,6.913567307332059,9.924783634933124
226.0,7.534375819564647,11.036969390431231
227.0,7.691253606084448,9.08549885729272
228.0,7.5776338466149635,8.274962534187553
229.0,8.011427072796074,7.920516278895507
230.0,7.277910156981754,9.081225881383236
231.0,7.373121449754023,9.044394105763107
232.0,9.430856554932086,9.992456690961806
233.0,6.646457463333939,8.90221912889104
234.0,5.3435277088502895,8.50822994210091
235.0,5.981998109417464,7.578807751388396
236.0,7.244431643625192,7.784523809523809
237.0,6.909715821812595,7.420890937019969
238.0,6.693970814132104,7.26205837173579
239.0,7.043612078977933,6.131383237795511
240.0,11.095538758382975,8.314539545165037
241.0,10.302012850773668,7.321229065977296
242.0,10.167820003781433,9.570395103131183
243.0,8.26628608371605,8.195061831660006
244.0,7.358069046878445,8.340965032198817
245.0,5.335793356004506,9.138531671245337
246.0,5.831183928386277,6.350218216575049
247.0,6.846693642051627,7.430557116631073
248.0,7.044174066164624,8.668109100445843
249.0,6.829119366078453,6.867642651080889
250.0,6.981422793047498,6.7803680583774995
251.0,6.962220051126424,5.609833911171441
252.0,7.154988861125761,6.077536939850079
253.0,5.809522080332465,7.693453569771429
254.0,7.107829490205572,11.956876273477373
255.0,6.021243115656963,12.862391817466563
256.0,5.101888276947285,11.508693941778128
257.0,4.705565546438875,8.646201903263272
258.0,4.640685999025889,6.766246112921959
259.0,7.927601064029074,5.643203701622269
260.0,6.463800532014536,4.215956689520812
261.0,6.208218125960062,3.3535330261136713
262.0,5.033064516129032,2.950806451612903
263.0,5.804197684036394,4.689640198511166
264.0,5.101892311727087,4.4188267869031055
265.0,5.79366842179588,3.8836364461659505
266.0,7.666189049607619,4.297866610179749
267.0,7.219847081845509,7.317835744114265
268.0,6.355876512682178,7.082821924993443
269.0,7.61640786436223,5.843041013536686
270.0,5.859187409757826,8.106335612983921
271.0,5.131629503462705,8.875099356452623
272.0,5.18060625448509,8.739201920555185
273.0,7.964624059391959,9.319968125239566
274.0,9.644590873328088,8.853461841070022
275.0,10.137445206249298,12.496508186280018
276.0,8.202531752276048,13.124410850099284
277.0,7.2936045858154435,10.30656026375932
278.0,6.714780263010003,11.575782098834813
279.0,6.00184331797235,10.69969278033794
280.0,5.8036079577385635,8.050850473942527
281.0,6.187883556254917,7.469020456333595
282.0,7.365715971675845,6.851848937844217
283.0,6.023819826907946,7.726966955153422
284.0,6.988119590873328,6.7896931549960655
285.0,7.685090479937058,9.947560975609756
286.0,6.518784421715186,8.68621164437451
287.0,9.088190035313707,9.535219475600607
288.0,11.227808628986516,10.430080233473003
289.0,8.780282962726744,9.653231360976132
290.0,8.618789714850315,14.462272362515717
291.0,12.84558683224813,14.412882837434097
292.0,9.98445168783485,11.673897568468771
293.0,7.1224382750739945,9.973455471881907
294.0,6.5163650668764745,9.541796860364915
295.0,5.354111872915964,9.379423775804577
296.0,7.2415720654902405,9.522127308830692
297.0,9.787529504327303,7.467899291896145
298.0,10.560955940204561,7.300039339103068
299.0,11.743528717545239,9.293961447678992
300.0,10.396813532651455,8.609795436664044
301.0,7.178031128326172,9.400683390828945
302.0,5.776669173994115,9.944562125522001
303.0,5.113354256548591,7.676451007686255
304.0,4.076346679808521,10.253646432245962
305.0,5.004263033059257,11.50141015554076
306.0,6.429403169607733,11.85380090667266
307.0,6.9595556554643885,8.469911206024502
308.0,5.532098834813233,8.489872990895808
309.0,5.255034468547451,6.204023828256715
310.0,5.536791427822113,6.511689333483196
311.0,5.576711250983477,6.295239968528717
312.0,6.1270653029110935,4.998426435877262
313.0,6.94543666404406,6.273170731707317
314.0,7.264221085759244,7.27168708553445
315.0,7.402832415420928,6.0154658873777676
316.0,5.700740382093647,7.141536328869137
317.0,5.968112126530694,6.98125203540231
318.0,6.092619811345225,7.325437845658144
319.0,7.631947386471383,8.950737356008794
320.0,6.829742379309648,8.753102745667654
321.0,9.568253343823761,9.329969840020981
322.0,7.629032258064516,8.056123787044323
323.0,9.189520812258813,7.17741935483871
324.0,8.808969315499606,6.516129032258064
325.0,6.138788355625492,9.676789929189614
326.0,7.82989771833202,10.227852084972461
327.0,9.266827769660186,9.281061031808473
328.0,7.1074500768049145,8.035023041474656
329.0,9.907757296466972,9.056221198156681
330.0,9.332872503840246,16.30483870967742
331.0,11.092242703533024,22.650000000000002
332.0,9.905030721966206,16.765552995391705
333.0,8.09251339402795,13.673974373384286
334.0,7.469571419925472,9.52183003201886
335.0,9.801990011038004,8.712143894657665
336.0,10.114704682938356,8.075791609387203
337.0,7.7734125302968735,8.05567707928054
338.0,7.8520878544482,7.358680396445935
339.0,7.720561237870443,8.604248623131392
340.0,8.298920984601551,12.890787156719492
341.0,8.457525008429808,11.876115544565582
342.0,7.945914353152748,9.071574688097112
343.0,6.9426660672136675,9.52319883106665
344.0,6.823642800944138,8.8220692368214
345.0,6.892859952793076,8.977124311565696
346.0,7.183772619984264,7.273072383949645
347.0,7.211723052714397,5.750098347757671
348.0,8.296184107002361,6.7802911093627065
349.0,10.671774193548387,7.5293273013375295
350.0,8.835483870967742,12.240182083848488
351.0,7.0191581431943355,12.014740923906935
352.0,7.718394777265745,10.140898617511521
353.0,6.818963320969615,10.11731201528605
354.0,6.110170094788506,8.198201641002585
355.0,4.9437553857105385,7.190648533213443
356.0,7.258551571690832,8.896819152523321
357.0,6.603776553894571,8.846105428796223
358.0,8.004720692368213,9.551691581431943
359.0,7.851691581431943,13.070102281667978
360.0,6.544649881982691,10.54645948072384
361.0,7.262018095987411,9.824291896144768
362.0,5.950826121164438,9.98225806451613
363.0,9.459559402045633,10.062627852084972
364.0,10.167938630999213,10.407631785995278
365.0,7.73566089693155,10.391306058221872
366.0,5.626671911880409,9.39110936270653
367.0,5.653933910306845,10.248819826907948
368.0,6.697069236821401,12.7801140833989
369.0,6.645712037765539,11.568686073957513
370.0,7.945476003147127,10.91797797010228
371.0,6.727861451425573,10.300227604810608
372.0,6.517041324791128,9.014495522835412
373.0,9.234327114008465,8.520957438837062
374.0,6.650631298939718,7.151204525870144
375.0,6.5588325652841775,9.255145929339477
376.0,6.997926267281105,9.078494623655914
377.0,7.345967741935484,10.464516129032257
378.0,5.533870967741935,10.299193548387095
379.0,6.262549173878836,8.755055074744295
380.0,7.296597167584579,9.033575924468922
381.0,6.1357985837922895,7.443804091266719
382.0,7.501553894571204,6.994630212431156
383.0,8.545830055074743,6.607828481510621
384.0,9.777560788280693,7.366444681727923
385.0,7.398900378404705,7.648456408527219
386.0,9.184818852796823,6.984788880146866
387.0,6.82923082687048,6.430632048255966
388.0,5.8308231238994415,7.191712562286913
389.0,6.468944588063391,7.5039976021880035
390.0,4.674440822749241,6.707230901802106
391.0,6.9374508261211645,7.75507474429583
392.0,8.568568056648308,7.692014162077104
393.0,6.578225806451613,8.544354838709676
394.0,10.226344086021504,9.8366211745244
395.0,9.35437788018433,10.646824412146994
396.0,7.310056760705856,8.417934235971215
397.0,7.854625154546476,12.602918730888833
398.0,5.453119028886141,13.750652913831512
399.0,5.809355213367802,10.258783859727998
400.0,5.842250196695515,9.051219512195122
401.0,5.011998426435877,8.9941384736428
402.0,8.147836349331236,7.038178599527931
403.0,8.404720692368214,5.509756097560976
404.0,6.704956726986625,6.822974036191975
405.0,5.321007081038553,10.201828331647372
406.0,7.082769472856018,11.977468060394889
407.0,6.005979543666404,11.565523959387058
408.0,7.588670338316287,12.564744670488178
409.0,8.38324154209284,14.221003334457308
410.0,6.363663781799108,11.658563820129515
411.0,5.043082874377131,12.50843218543848
412.0,6.973442358847551,10.353697659539517
413.0,9.197205050391517,7.349832700737499
414.0,9.342977033456968,8.725978506151598
415.0,10.845498482634596,9.400573226930426
416.0,9.99277284477914,10.111773631561201
417.0,10.960110149488592,9.592584579071596
418.0,10.294630212431157,9.203206136900079
419.0,10.294256490952005,8.50196695515342
420.0,8.476789929189614,8.83477576711251
421.0,7.366640440597955,9.176239181746656
422.0,7.363493312352478,9.591173054587689
423.0,8.221085759244689,10.584728934846952
424.0,8.325404991022614,9.757524143834136
425.0,9.342875587564809,9.51755042754256
426.0,8.633672254836693,9.75295302651715
427.0,6.415223224192539,9.34782827977163
428.0,5.796360628618693,9.430562448304382
429.0,7.161290322580646,9.384677419354837
430.0,6.278609831029186,10.355337941628264
431.0,6.173579109062979,13.558717357910908
432.0,7.120660522273425,10.944278033794163
433.0,7.0619431643625195,11.937058371735791
434.0,6.541858678955453,11.418125960061444
435.0,6.806943351691581,11.192250196695515
436.0,7.278874901652243,9.432415420928404
437.0,6.814437450826121,8.323465774980331
438.0,6.882848151062156,8.662981904012588
439.0,6.955940204563335,7.668686073957513
440.0,16.68571803229553,8.167301712187628
441.0,37.34124611292196,7.658650856093814
442.0,36.60610692742872,10.202712524821099
443.0,22.420677381889025,8.29018395713911
444.0,15.26423326214829,9.372865385335881
445.0,12.024645948072383,9.731963021243114
446.0,9.244177812745868,8.492191188040913
447.0,8.363650668764752,9.997639653815892
448.0,8.51047544115994,8.532052002547676
449.0,10.58954141845566,8.228260462328125
450.0,9.209011464538609,8.571407965231726
451.0,6.602528942340115,10.02242703533026
452.0,5.612193248660597,9.900408377355664
453.0,5.026142707279607,9.77662507961485
454.0,5.18123618448166,8.96384361769885
455.0,5.134569705144056,7.550470195946199
456.0,6.138282567157469,8.888775242591135
457.0,6.907747930013862,11.159113558877523
458.0,6.804216777190813,9.831158442920835
459.0,8.138221685212244,11.751928552695666
460.0,7.327578584541605,13.878786856992994
461.0,5.425806451612903,11.305743509047993
462.0,5.85507474429583,7.347757671125098
463.0,5.826986624704956,10.697482297403619
464.0,5.343332022029898,10.98906372934697
465.0,6.659396425761493,10.599216964519876
466.0,7.14205069124424,8.770890937019969
467.0,5.835649657187815,11.0857995204376
468.0,7.404518376981004,9.344915889251059
469.0,6.607789142407553,9.195998651230752
470.0,5.576014386871979,11.011209771083886
471.0,5.9778183657412605,10.730231164062793
472.0,5.937993143756323,9.835892248323404
473.0,7.655344498145443,8.02409051740287
474.0,9.084472294031695,7.931053538645985
475.0,8.931752276048107,6.301817091903638
476.0,8.909265295417931,7.616983252781837
477.0,10.927904537109887,8.15250084298078
478.0,9.867869319246187,8.672026151137086
479.0,8.392235210370536,7.771496946536285
480.0,7.359827282604623,9.99986137649395
481.0,5.924921321793864,9.074508261211644
482.0,4.266896144767899,7.713060582218725
483.0,4.375133940279495,8.182874377130869
484.0,4.164592933947773,8.741397849462365
485.0,3.9790706605222734,9.673924731182796
486.0,5.146889400921658,13.18437019969278
487.0,5.40184331797235,13.01390168970814
488.0,5.3958937469559025,12.925781162189502
489.0,6.193914615413435,13.617326064965718
490.0,4.9146416395039525,12.793570866584242
491.0,5.8559289648196025,11.708519725750252
492.0,5.517058184406729,11.02054250496422
493.0,6.952077479300138,7.5460698362744
494.0,6.655070997714585,7.777067176201715
495.0,6.592147165711289,8.26576748716796
496.0,6.623374920385149,7.911404593308605
497.0,9.047324940991345,4.858851298190401
498.0,11.338768686073957,5.015578284815106
499.0,8.921400472069237,6.750339065602638
500.0,7.763296616837136,8.174304072533813
501.0,7.63860326010208,10.14394156197854
502.0,8.476156468760717,9.877212716473142
503.0,7.609252038284296,10.692774429871204
504.0,7.828819567529244,10.654835755642207
505.0,7.691829138603332,9.76653078104691
506.0,8.136827956989247,10.318394777265745
507.0,10.663748079877113,13.007987711213518
508.0,10.846804166198345,13.925044022329624
509.0,10.103181784121988,11.072455134689596
510.0,9.510865085609382,10.592679180248023
511.0,9.546599977520513,9.40432730133753
512.0,6.663852984151961,8.212532314263235
513.0,7.348055524334045,8.375345622119816
514.0,9.188268517477802,8.6345650219175
515.0,7.523185718032295,10.213154246749841
516.0,6.716623580982354,10.588681578060019
517.0,6.175413060582217,9.721282454760031
518.0,6.715185398131896,8.398880852952448
519.0,5.647925114486877,9.19240856180274
520.0,5.382334293034529,7.528231930670955
521.0,9.039327575126158,6.383266615367323
522.0,7.64248046734278,9.268973984316235
523.0,6.674676857367651,7.981357011726798
524.0,7.238203888951331,8.210977483046719
525.0,6.826475216365067,8.498269079464988
526.0,4.646911880409126,8.139771833202204
527.0,3.998033044846577,10.257907159716758
528.0,4.486821400472069,8.672383949645948
529.0,7.683221872541306,11.160739575137686
530.0,5.538945712037766,11.986073957513769
531.0,4.698819826907947,10.771951219512196
532.0,7.816522423288749,9.276848937844218
533.0,10.449173878835563,8.779228953579858
534.0,12.647068732473926,8.605485283140673
535.0,12.007641368597309,10.266550666747362
536.0,8.587288426234137,10.167146301115617
537.0,6.550646573463252,8.75748149044766
538.0,7.008604167927535,8.70210817244649
539.0,7.834657749803304,9.541542092840283
540.0,7.8792636094563715,9.382924955977671
541.0,8.187418980180585,10.043134389869245
542.0,9.019321119478475,10.924268480011989
543.0,8.868039788692817,10.899585066127159
544.0,8.536439249185118,12.625195758870031
545.0,9.700093664531115,12.485024914765276
546.0,12.02864636019632,11.609152897980593
547.0,9.861172305271438,11.621125098347758
548.0,12.171184107002361,12.578225806451613
549.0,12.284952793076318,12.102163650668764
550.0,11.721636506687648,11.694571203776555
551.0,8.90967741935484,11.429032258064517
552.0,9.891030684500393,10.442997639653816
553.0,8.745592147165711,10.522228466524297
554.0,8.844659248435802,10.798861039301636
555.0,7.716979506200591,7.835307781649244
556.0,11.227652579521187,6.220150050578846
557.0,10.878273575362481,7.7652579521186915
558.0,8.385373346821027,7.605747255629238
559.0,6.954703832752614,7.664830841856805
560.0,8.168775991907385,5.37639653815893
561.0,6.883159117305459,6.391270465700049
562.0,8.2651830204938,6.838908246225319
563.0,8.555861526357198,8.509362706530291
564.0,6.679583005507474,9.402989771833202
565.0,8.351081825334383,8.702301337529505
566.0,7.730552433404517,8.337460192574277
567.0,7.476969765089356,7.637278483383912
568.0,9.068225244464426,8.404162451762765
569.0,8.97549735866022,8.418052901727174
570.0,7.730452212356225,7.84278221123225
571.0,10.030740699112059,6.521237495785096
572.0,10.436574126109925,6.648128582668315
573.0,8.823873215690682,7.93413510171968
574.0,7.047974972837286,9.716496197220035
575.0,5.595425424300326,8.492113446480086
576.0,5.672443894945862,12.005964557341425
577.0,8.063601963208573,10.853493687010602
578.0,8.241327096716553,10.862825844493823
579.0,9.686715775700826,9.315053475242303
580.0,8.954687549534128,8.379792669957894
581.0,8.458795387670289,8.680218915624108
582.0,7.054181328768268,8.804468230432038
583.0,6.828518976434004,8.079794687347794
584.0,6.166640440597954,8.17084972462628
585.0,7.262391817466561,10.339634146341464
586.0,9.361841070023603,13.11215578284815
587.0,10.117326064965717,12.052276048106101
588.0,7.593356374807986,12.480261136712748
589.0,9.949048368363869,11.167648270952755
590.0,7.3071953092802815,10.457801318796598
591.0,6.579596118541831,9.363174852946685
592.0,6.766756584616537,7.663538271327413
593.0,6.888539207972725,9.089730620808513
594.0,7.616393310335089,12.909468187202256
595.0,10.427866206701768,13.7026491211385
596.0,14.331566387978661,14.632402451993325
597.0,11.61946982993403,15.694926264399122
598.0,10.046005567996126,13.818666908753455
599.0,9.720515342250197,12.975019669551532
600.0,10.756412273800159,12.77690794649882
601.0,8.509598741148702,13.005527143981116
602.0,8.047541306058221,10.63784421715185
603.0,6.795830055074744,11.018410700236034
604.0,5.689024390243903,9.301888276947285
605.0,5.002104642014162,10.653619197482296
606.0,5.465794649881982,9.140617623918175
607.0,6.119590873328088,7.25861526357199
608.0,7.374901652242329,8.02741935483871
609.0,5.466739725000937,8.177791203027239
610.0,5.369660185081113,5.882040762803942
611.0,6.227552358472893,4.376425574163576
612.0,5.9534075156419775,4.6805514967592075
613.0,5.739170506912442,5.392165898617511
614.0,5.869662058371736,4.626574500768049
615.0,7.159831029185868,6.586674347158219
616.0,6.501536098310291,5.8374807987711215
617.0,8.603763440860215,6.850998463901689
618.0,6.908026113671275,8.938556067588324
619.0,6.6188734030197445,8.72262185755498
620.0,7.910243153122775,8.535504477164586
621.0,5.615106215578285,9.0125295043273
622.0,4.198367427222659,9.315558615263573
623.0,5.394325802705032,9.987752425911356
624.0,6.048423625941329,9.20917350417744
625.0,8.737979094076655,7.837036828893635
626.0,8.078116218950209,9.43254280469072
627.0,7.828160169230193,9.591011663395612
628.0,6.802021712879305,7.075075724170924
629.0,7.182950461549989,9.003481438571917
630.0,5.988940668563012,9.213722286106236
631.0,5.43168512578426,11.668544856664447
632.0,6.608811959087332,11.251311303435614
633.0,5.4012588512981905,10.458562811434565
634.0,8.81038552321007,8.767833726724364
635.0,6.956805664830841,7.497895357985838
636.0,8.805015735641227,8.69693154996066
637.0,6.728717545239968,8.587175452399684
638.0,7.244295830055075,8.540165224232888
639.0,6.059677419354838,8.476612903225806
640.0,6.621927803379416,8.8428955453149
641.0,6.377260125135813,8.879738488629126
642.0,6.108083249035255,8.645002997264996
643.0,6.30437600689371,8.40215334757034
644.0,5.869929938930725,7.240189577010977
645.0,5.0394964594807234,6.995594020456333
646.0,5.941227380015736,4.695357985837923
647.0,8.126396538158929,7.146656176239182
648.0,8.099704956726987,10.899606608969314
649.0,6.930094413847364,10.292545239968527
650.0,6.7064712824547605,9.505114083398897
651.0,6.440637293469709,9.267663257277734
652.0,10.088532651455546,9.96349331235248
653.0,9.792250196695516,10.245456333595595
654.0,7.445472256565883,10.989798059270914
655.0,7.597244389494586,10.768305795961187
656.0,9.073995916226442,13.487221348019933
657.0,9.214171443557753,12.287424600052452
658.0,9.2634783260275,12.870443220561238
659.0,8.363493312352478,11.899291896144767
660.0,7.758457907159717,10.828481510621558
661.0,11.995121951219511,13.801730920535011
662.0,9.134854445318645,16.63194335169158
663.0,8.081667977970103,15.855232100708104
664.0,8.646202263511467,13.679850309669348
665.0,8.775186104218362,11.624110835401158
666.0,9.831318465169762,8.109950775686416
667.0,10.074835078375596,5.608397889810163
668.0,8.35147283872697,5.1425053965179846
669.0,7.70551309430145,5.998878835562548
670.0,7.411037428346634,6.017309205350118
671.0,7.404574575699674,5.6852871754524
672.0,7.415111835450151,6.91345397324941
673.0,6.483182533438237,6.158143194335169
674.0,6.2603124648758,6.640515529579259
675.0,9.79970776666292,7.639691281705443
676.0,7.752575774605672,7.973324341538346
677.0,6.1022816679779694,7.667153722228466
678.0,7.270731707317073,8.662766475591024
679.0,7.330987973474205,8.17785021168184
680.0,5.580914915139935,7.009853508673336
681.0,4.686508560938144,7.954657000487057
682.0,4.450550747442957,6.709893784421715
683.0,4.993823760818254,6.491640440597954
684.0,6.6179948297178814,8.135854782510958
685.0,6.767297965606383,9.4735135438912
686.0,7.68873885752328,7.703570708075035
687.0,7.741605856771081,7.0356858261067545
688.0,6.637669568826138,7.430755973635596
689.0,5.187919869273134,7.5492545744316
690.0,4.485384010167644,7.35409227541407
691.0,4.938630999213219,6.575924468922109
692.0,5.119590873328088,6.953422501966955
693.0,4.396538158929976,6.385051140833989
694.0,4.023996852871754,7.87663257277734
695.0,3.665578284815106,9.059795436664043
696.0,3.42169551534225,6.9265932336742715
697.0,7.998347757671125,8.4294256490952
698.0,7.665184893784422,7.971990558615264
699.0,9.350295043273013,9.475373721479151
700.0,7.8819433516915804,7.834402045633359
701.0,5.768736652804316,8.423095800082425
702.0,9.123884455434416,8.2333220935896
703.0,7.992231319690013,9.131105558485574
704.0,7.385591513128885,7.473799004562183
705.0,5.957547920215111,7.34862255499549
706.0,6.631231717404022,6.136292844318021
707.0,6.91164120432413,7.275442889132897
708.0,5.55696676782436,8.060975609756097
709.0,6.341463414634146,5.875725900116144
710.0,5.010228166797797,5.88082125060882
711.0,6.014630399760218,7.554512757109138
712.0,4.776928552695665,7.921790116518677
713.0,6.4612753362556665,6.991847439211719
714.0,5.960818253343824,9.51549960660897
715.0,6.508339889850511,9.307317073170731
716.0,8.050393391030685,9.580094413847364
717.0,6.482317073170732,8.811132966168373
718.0,6.271439811172305,9.455074744295832
719.0,6.866168371361133,10.150432730133753
720.0,6.198387096774193,11.071990558615262
721.0,8.042545239968529,9.790361919748229
722.0,7.643666404405979,11.235837922895358
723.0,5.80051140833989,9.766699449252556
724.0,5.735739575137687,9.198269079464989
725.0,6.119885916601102,9.07816679779701
726.0,6.538749016522424,7.409834775767111
727.0,8.36536191974823,7.027498033044846
728.0,6.950469782079667,8.060241889740727
729.0,6.164957550363201,7.439759025122134
730.0,7.468365871955793,8.128750480303003
731.0,7.677840598360972,7.640605679875253
732.0,9.429006845207237,8.36790315465045
733.0,9.284045808200018,8.992503715359733
734.0,7.513384037066177,8.098926916688521
735.0,8.337061806101932,7.582970539382813
736.0,9.68044846577498,8.786467348544452
737.0,7.7314122738001565,8.273485444531865
738.0,7.547049567269866,7.859166011014948
739.0,7.699511071147578,7.156082574650631
740.0,5.200266943913679,7.705499981267094
741.0,5.352956052602,6.402749990633547
742.0,4.7709115432168145,6.915065003184594
743.0,4.498122962796448,7.9686261286576
744.0,6.416168371361133,7.026986624704957
745.0,7.174173878835562,7.316404405979544
746.0,6.153619197482297,9.521911880409126
747.0,6.685778914240755,8.602261998426435
748.0,6.030015735641227,7.693745082612116
749.0,5.779124553652484,8.221643063204825
750.0,6.454481631664952,7.652353789666928
751.0,8.486111783574412,6.182225281930238
752.0,10.57345518368335,6.555048518227117
753.0,8.774768504508867,9.77343299239444
754.0,8.219394177812745,12.33402832415421
755.0,9.465342250196695,14.0912077104642
756.0,9.261250983477577,11.246262785208497
757.0,9.640853658536585,11.99409913453973
758.0,8.938473642800943,10.964476789929188
759.0,6.38659473230677,9.619949608482258
760.0,8.011576936045858,7.987336555393204
761.0,7.962908845678317,8.71908133827882
762.0,7.305608632123187,9.179760968116593
763.0,7.199698544309087,9.02042174976872
764.0,8.495975307147612,9.497022908903318
765.0,9.41701466642458,8.883697472210454
766.0,8.55445540559624,9.696451411164237
767.0,6.013419677621094,11.723520748855131
768.0,6.466876475216365,12.302045633359558
769.0,7.84948859166011,11.341030684500392
770.0,10.184146341463414,9.086329661683713
771.0,10.245298977183321,10.580664830841856
772.0,9.042958300550747,10.987175452399685
773.0,10.111753025364354,11.923788917612677
774.0,8.040421865048144,12.46751433067326
775.0,6.828059083586227,15.148833876587613
776.0,6.9111685586901945,14.053276385298414
777.0,5.6097935633734215,11.78903001011577
778.0,9.776984751414334,12.107283353939529
779.0,13.89206099434266,12.089018770372036
780.0,9.776741223633433,9.044499298236513
781.0,9.290060319958037,9.37178881962517
782.0,8.023078940466824,10.460481349230367
783.0,7.259061106740099,10.358643507030603
784.0,7.6934959349593495,12.003554641005465
785.0,7.544492525570417,12.961369000786782
786.0,5.43756884343037,10.80003933910307
787.0,5.281963021243115,10.917958300550747
788.0,5.693804091266719,8.169866247049567
789.0,7.331598666217077,8.658205012925706
790.0,6.7448709302761225,7.242949870742947
791.0,7.231011389606984,6.704214903900191
792.0,7.3589458993668275,6.358775429920199
793.0,9.798808587164212,6.923569742609868
794.0,7.72889738113971,7.121539095575288
795.0,8.057210295605259,6.282642089093702
796.0,6.963332497557516,7.156411121005928
797.0,5.581430214160347,6.79480666199785
798.0,4.6986803388062235,7.29332330402354
799.0,7.631701264903468,8.349014505033388
800.0,9.617188161956062,10.808968306804656
801.0,12.656412273800157,18.682631785995277
802.0,11.825671574688098,45.37900790528643
803.0,9.472945936832641,41.59627027837098
804.0,8.33623693379791,23.6410147615301
805.0,7.737473305608632,15.958813832377952
806.0,6.803302611367128,13.852304147465436
807.0,10.642322318384473,9.762117380390393
808.0,12.003553632310515,8.243289872990896
809.0,10.75578940466824,9.000559177250759
810.0,9.754655127196433,8.984376756209958
811.0,11.802255441909256,13.648832939942302
812.0,8.62061974217757,15.355585143940768
813.0,7.672137828078032,13.205749561217697
814.0,10.091379692953257,11.608775646069116
815.0,9.525233512881034,10.393294195969254
816.0,8.375362625834695,8.64629304605701
817.0,6.587981904012588,11.416955153422501
818.0,8.459716758457906,12.29315499606609
819.0,7.487686860739575,12.682061369000785
820.0,6.322049567269866,11.560857592446894
821.0,6.263926042486231,8.999449252557042
822.0,6.616620771046421,10.186191974822973
823.0,6.693351691581432,9.010837922895359
824.0,8.261428009441385,7.015263571990559
825.0,5.5682140047206925,7.172147915027537
826.0,5.037450826121164,7.547915027537371
827.0,3.968686073957514,9.18906372934697
828.0,5.1967741935483875,8.569354838709677
829.0,10.573603461841069,9.209933123524783
830.0,10.992171518489378,9.633910306845003
831.0,9.576730920535011,8.86927616050354
832.0,11.77183320220299,9.033831628638868
833.0,12.37844217151849,9.32336742722266
834.0,16.522029897718333,14.51298190401259
835.0,15.810267505900866,13.714948859166011
836.0,17.846125098347756,20.3728166797797
837.0,18.2025364355026,17.828305421303057
838.0,21.712335618747893,17.214628526469596
839.0,27.796765763740584,24.2316258289311
840.0,21.965269191862426,23.301562324379006
841.0,25.463620696114795,36.158293057584956
842.0,25.90346933423251,28.858716421265594
843.0,20.998089243565246,21.49166385673073
844.0,14.97502759501186,17.910329900888517
845.0,15.111746684996096,14.921726712836074
846.0,14.520730410423564,16.135650737932405
847.0,13.322558453872379,13.438540216667676
848.0,13.055378361475922,11.85805846395933
849.0,12.123898505114084,9.01294256490952
850.0,10.74338166423139,5.8695665205499985
851.0,9.38475141433442,5.490959499456746
852.0,8.451069648945337,6.695912479862126
853.0,7.707792888988798,7.270536885092353
854.0,7.060426735603761,8.55422989022517
855.0,5.994630212431156,7.853835562549174
856.0,6.414614476789929,10.195003933910307
857.0,8.146496946536285,9.244967404743171
858.0,11.347383013000636,8.787344048555692
859.0,7.890449964407478,7.419504701959463
860.0,7.621877728880089,6.957911482695118
861.0,6.93871227120637,7.79642230310995
862.0,6.601460590288284,8.861344792107971
863.0,5.88963666807884,9.84806027961024
864.0,8.614173172749098,10.360051645181464
865.0,6.576730920535011,9.694335169158142
866.0,6.409815106215579,9.565204563335955
867.0,6.33733280881196,9.029307631785995
868.0,6.435385523210071,10.328265145554681
869.0,7.735031471282454,9.365342250196694
870.0,7.493941778127459,9.624075531077892
871.0,7.850826121164437,8.58780487804878
872.0,7.575688434303698,8.159362706530292
873.0,8.32816679779701,7.170003933910307
874.0,8.981978944213406,8.978262335618748
875.0,7.287774905398823,10.007620546251545
876.0,6.940120985754346,11.511345224405808
877.0,7.959281578636418,10.895090393477489
878.0,7.6110333935668315,9.28533040523599
879.0,7.7038719476170305,8.334527628154694
880.0,6.896406019891464,9.13823155601283
881.0,7.147541306058221,10.490952006294256
882.0,7.571439811172304,11.551455546813532
883.0,8.20963808025177,14.904209284028324
884.0,8.89427616050354,10.982946498819828
885.0,11.949154209284028,10.711231313926042
886.0,14.566876475216365,12.943784421715185
887.0,13.435680566483084,9.555291109362706
888.0,11.523190401258852,7.434244689221085
889.0,10.304740361919748,10.622364280094413
890.0,9.289678168671088,10.746723614701583
891.0,14.759709265295417,9.20766550522648
892.0,12.21250205341472,12.70628589873279
893.0,9.164551577454803,11.86108944818622
894.0,11.674211272598368,10.020867304738271
895.0,11.844786127850643,8.60797589507267
896.0,10.294570483280161,8.421729883020205
897.0,7.274001536098309,6.818970814132104
898.0,5.859178187403993,6.343548387096774
899.0,7.2730096287137975,7.103186467348544
900.0,8.825137686860739,6.22079446255292
901.0,7.827084972462628,5.803542392566783
902.0,9.280409126671913,5.493608332396688
903.0,10.38021992431906,6.70494548724289
904.0,17.975711850436475,7.329262672811059
905.0,32.49870368288936,5.2769838147690225
906.0,36.78322280918661,6.087557603686635
907.0,35.843786295005806,5.884717695103218
908.0,22.649769585253456,4.8675583530028845
909.0,15.116074850929298,3.6421755532691806
910.0,13.36409564733719,3.5303718049587443
911.0,10.191725243023434,4.699804313179609
912.0,8.248397183723698,6.052052694224212
913.0,7.399347518466323,5.542548770400856
914.0,6.781476902326627,5.026278520849725
915.0,6.179723502304147,6.316129032258065
916.0,10.802666629200854,30.719866247049566
917.0,17.987417106889964,30.43571990558615
918.0,18.239830841856804,41.283556254917386
919.0,20.153152748117343,72.77276891086882
920.0,14.996852871754523,91.55307032332996
921.0,12.80787531377618,69.67415982915588
922.0,8.527636264466814,60.98491260445773
923.0,8.01244126362601,46.883880377759944
924.0,9.42603630001577,43.48802313818872
925.0,8.440207090100051,35.758220478464565
926.0,7.611415658792747,27.70395037783836
927.0,7.213956232960679,20.522770936636597
928.0,6.848441531114485,12.601039284211296
929.0,7.47371919199312,8.20374544855726
930.0,6.9445208863191406,6.255098530730244
931.0,8.664083398898505,8.809244689221085
932.0,7.181372934697088,6.813749016522423
933.0,6.066089693154996,8.035849162639092
934.0,5.604398486381177,10.278293244914016
935.0,8.031500318459406,11.975072121688958
936.0,7.450339065602638,12.307894046682403
937.0,5.795549061481398,9.96688022179761
938.0,7.839946049230078,9.594432580270503
939.0,7.141171181297066,11.259581881533101
940.0,8.07488666591735,11.852294781012326
941.0,7.122415795586527,11.085470757933386
942.0,6.816986999363081,10.569701397474805
943.0,6.877336930051328,9.678084373009629
944.0,5.563532651455547,9.918076317859953
945.0,6.715675695927466,11.651837698100483
946.0,7.663896069836275,12.128829942677307
947.0,6.837155782848151,10.180015735641227
948.0,6.2343036978756885,9.06420141620771
949.0,6.58669214341913,11.641838072758608
950.0,8.301963208572177,9.18061893522161
951.0,8.904231763515792,7.546324603799034
952.0,8.3203392529317,6.3082865010677756
953.0,7.2912966917687605,6.9531302686298755
954.0,9.955190888314412,6.824360271252482
955.0,9.562961297815743,8.084092016035367
956.0,7.297403619197483,8.538158929976397
957.0,8.286073957513768,7.8760031471282455
958.0,6.585208497246263,8.158300550747443
959.0,5.911801730920535,10.060267505900866
960.0,6.123721479150275,8.312903225806451
961.0,6.616542092840284,7.42435090479937
962.0,4.800506364865138,6.812733765054772
963.0,8.436917226492364,7.051292138231556
964.0,6.53474500191652,8.559477697754645
965.0,7.292775726764711,8.515517763118076
966.0,7.258897698158123,10.697176662833627
967.0,6.523878835562549,9.402301337529504
968.0,6.318646734854445,8.988985051140833
969.0,6.4906372934697085,8.692525570416993
970.0,7.958068262710277,8.659083586227567
971.0,7.601378741898017,10.83465587651268
972.0,7.050571353639803,9.63589599490465
973.0,9.397984339290396,8.318970814132104
974.0,8.65863024989697,9.90203064703458
975.0,7.7153815892997635,10.124350904799371
976.0,5.766660110149488,9.781530291109362
977.0,7.620676445243715,8.675000936645311
978.0,6.978483383912179,7.410887565096848
979.0,5.981531227754673,7.947536622831665
980.0,4.609254992319508,6.775499231950844
981.0,5.054224270353302,6.472427035330261
982.0,5.976121164437451,6.411900078678206
983.0,6.005802517702596,5.686998426435878
984.0,4.985562549173879,6.746105428796223
985.0,7.5508841931737285,9.977699411786745
986.0,7.728451537971601,8.903375669701397
987.0,6.319457869693904,7.548619384811359
988.0,8.223438612266307,6.7400846727361285
989.0,9.6988160803267,8.185699299389306
990.0,12.620416994492526,8.239181746656175
991.0,9.444354838709677,9.65892997639654
992.0,8.964516129032258,10.381077891424075
993.0,8.17305271439811,9.765676632572777
994.0,6.20102281667978,7.183162863886704
995.0,5.5921291533014585,7.3727551493877215
996.0,6.080486291835623,7.311082531420848
997.0,5.117144067576797,6.6863016343740185
998.0,5.534968571947329,6.616557583512737
999.0,8.914612531449666,4.918428280348028
1000.0,6.9646322730508405,7.534955603012251
1001.0,5.16406279270166,8.52042823423626
1002.0,8.694166573002136,9.308985238469896
1003.0,8.32898729908958,8.890674759282156
1004.0,6.989513319096323,9.837784271851936
1005.0,7.265812446142894,9.779266419392306
1006.0,8.08027050316586,10.582552171143831
1007.0,7.756648308418567,11.143273013375296
1008.0,6.973524783634933,11.4154602675059
1009.0,6.37588512981904,11.65558615263572
1010.0,7.523898505114083,13.198760818253344
1011.0,8.292191188040913,12.80381589299764
1012.0,11.69968326978555,11.375295043273013
1013.0,11.487996818287927,10.920141620771044
1014.0,10.91036534931106,11.953982615863024
1015.0,9.180595735237748,12.426243864973213
1016.0,7.000397714009043,11.027350043085685
1017.0,8.298733655539321,10.009834775767112
1018.0,7.324866059720504,11.29946423888202
1019.0,7.343231800981604,10.640822749241316
1020.0,7.589554531490016,10.053456221198156
1021.0,6.131894646135402,10.132044509385185
1022.0,7.868371361132967,11.66791989809299
1023.0,9.300314712824548,10.341640440597953
1024.0,10.245180959874114,10.799036191974821
1025.0,11.668292682926829,9.701416207710462
1026.0,11.229583005507475,12.466915814319432
1027.0,15.072698662470495,12.216148701809598
1028.0,12.12383949645948,11.650904799370574
1029.0,9.78575924468922,10.377773406766325
1030.0,7.891755647971225,9.117214604173691
1031.0,8.960777977595443,9.243265520212805
1032.0,8.095013300363417,9.236896332096961
1033.0,7.093889325990034,9.429882732007043
1034.0,6.509478850548874,9.064722191000712
1035.0,8.643100670638042,10.800213555130942
1036.0,9.101427447454197,9.762241954216776
1037.0,9.176756209958413,9.827619796935295
1038.0,9.10851597916901,8.723277509272789
1039.0,7.5798190401258845,12.806451612903224
1040.0,8.351671911880409,8.7588512981904
1041.0,7.6859166011014945,6.2770062942564895
1042.0,7.987254130605821,5.773878835562549
1043.0,12.168761005582407,6.572545052639467
1044.0,11.986819527181447,7.495399198231614
1045.0,9.071301187666254,7.796873477951369
1046.0,6.9262485481997675,7.938582293657038
1047.0,7.999316248922858,10.654578322280917
1048.0,8.624016522423288,8.116188040912666
1049.0,7.675967554606421,6.4742422539432765
1050.0,7.128882394814731,10.653403769060732
1051.0,8.819489715634484,9.462665317897418
1052.0,8.786070210932525,8.611854183057961
1053.0,9.577928889887978,7.702071859428271
1054.0,10.445723277509273,8.029223333707991
1055.0,7.916870855344498,8.849788318159678
1056.0,5.780753812146417,8.911621895020794
1057.0,7.420023603461841,10.779543666404406
1058.0,7.014181746656176,9.784028324154209
1059.0,6.915174590685998,8.519318309542541
1060.0,5.950732456633322,8.291667603311977
1061.0,6.7841781874039935,9.795007680491551
1062.0,6.330307032332996,10.461429882732006
1063.0,8.25574163575737,7.683222809186617
1064.0,8.071035180397885,11.748677456820651
1065.0,9.75817691356637,10.3130165598891
1066.0,10.349518564310067,10.210482934322432
1067.0,8.061856056348581,8.059608107601813
1068.0,8.274437076167997,8.316979506200592
1069.0,6.38222621857555,10.076692518077255
1070.0,5.61558203139635,9.578472144168447
1071.0,4.9040275748379605,10.006286763328463
1072.0,5.111468285189764,10.476735747860847
1073.0,5.981795361732419,11.442875011167693
1074.0,6.478071259975273,9.29639910312609
1075.0,7.764055299539171,9.882503249438734
1076.0,8.907834101382488,11.018267753751624
1077.0,10.032726387171707,10.999853883331461
1078.0,7.266286388670338,9.675963808025177
1079.0,6.863788355625491,9.017014162077103
1080.0,6.409893784421715,8.381274586939417
1081.0,6.916640440597955,8.795476003147128
1082.0,7.0452596380802515,10.527557041699449
1083.0,7.187627852084972,8.664457120377655
1084.0,6.758195646472593,9.555865272938444
1085.0,5.640983852234836,13.855955190888313
1086.0,5.693072571278708,12.429590498669963
1087.0,4.692720392641714,10.750987224157955
1088.0,5.50694241504627,9.600434603424375
1089.0,5.954546476340339,9.665040650406503
1090.0,6.4635074340817855,6.702040589884807
1091.0,5.912398878331215,5.638923520748856
1092.0,5.2614708789767795,5.642435796566403
1093.0,7.566718542406976,6.163460601816228
1094.0,7.641423787332521,5.711569010585533
1095.0,9.451398411449553,5.523857292720392
1096.0,9.636645311153572,5.643213068075381
1097.0,8.659392679180248,4.654808737027462
1098.0,10.57979937057435,6.725413060582219
1099.0,8.577596380802518,7.920771046420141
1100.0,8.49645948072384,7.99164512382451
1101.0,9.953804653253906,7.84807613053089
1102.0,8.85770484432955,9.314675358735155
1103.0,8.099584129481848,11.04184931250234
1104.0,7.491570192199617,9.68544078528343
1105.0,9.36352703158368,8.056007643025739
1106.0,8.996279644824096,7.554501517365404
1107.0,6.538265707541867,9.586456108800718
1108.0,5.741713498932224,8.62802068112847
1109.0,5.680504664493649,10.662417106889961
1110.0,6.519092578022554,10.670705481248362
1111.0,6.022219100071185,7.6212974410850105
1112.0,5.149897905661085,6.578626690644786
1113.0,8.055190888314414,6.8534262485482
1114.0,7.936328725038402,7.05637480798771
1115.0,5.434677419354839,7.874193548387096
1116.0,5.904032258064516,8.868548387096773
1117.0,5.40226574500768,9.736712749615975
1118.0,6.303896444494399,9.574434266232064
1119.0,7.180558053276385,10.08681390730958
1120.0,5.463262897605935,8.566794050428983
1121.0,5.119534674609419,11.28823573489191
1122.0,4.287493911805478,10.288434303697876
1123.0,6.191628264208909,10.46205837173579
1124.0,6.671555594942692,11.34786127850644
1125.0,10.060905649556318,12.697101370960535
1126.0,12.077728591890668,14.017758002553439
1127.0,8.245439978327468,12.985853773816007
1128.0,6.586084044463274,11.831713369242873
1129.0,7.98605580100466,11.182827977163146
1130.0,8.212146704593597,9.648455688030825
1131.0,6.363351086364462,8.668838386895036
1132.0,7.340696302124312,10.273544453186467
1133.0,7.939530178711925,9.376269154396613
1134.0,7.998876025626616,10.03117155595519
1135.0,6.554906148139823,10.69772582518452
1136.0,9.17414858941216,14.072623730845601
1137.0,7.022636843879959,11.928601401221385
1138.0,7.930212431156569,10.626435877261997
1139.0,7.545713911056161,9.441987936008392
1140.0,8.320598487533971,11.923862696443342
1141.0,8.244573437315374,11.517576509511994
1142.0,9.505459417320157,10.811561661522322
1143.0,7.474907128014917,10.842877604954708
1144.0,6.963413625451391,9.351546329359076
1145.0,7.617053501180173,9.404878048780489
1146.0,7.22651830204938,8.772101082761978
1147.0,7.017665130568356,9.636247236896331
1148.0,10.030683563748081,9.608196583117905
1149.0,8.498632497845716,10.769922445768238
1150.0,7.728466524296579,12.279532426660671
1151.0,8.4487655014799,11.067475928215503
1152.0,7.106208085122325,9.88070885317148
1153.0,7.604563335955939,7.959402045633359
1154.0,5.303068450039339,5.247364280094414
1155.0,6.063414634146341,7.929740361919748
1156.0,5.814004720692368,9.355114083398899
1157.0,6.201377877302346,9.98886804252658
1158.0,5.3216763501381905,11.47903276241199
1159.0,4.933015594423933,9.539113155399544
1160.0,3.737003469910629,9.19040630232605
1161.0,4.925356573664992,7.8282676672920575
1162.0,6.26463976621333,8.499505451275711
1163.0,5.21139148027425,9.306007643025739
1164.0,4.723516353827133,7.629616724738676
1165.0,5.730100033719231,6.377790266381926
1166.0,5.605372597504777,6.044041062530441
1167.0,5.003147128245476,6.537919148776741
1168.0,7.985837922895357,7.296496946536285
1169.0,7.612903225806451,5.829995129444383
1170.0,5.790165224232887,4.1594507511895396
1171.0,8.470889063729347,3.896852871754524
1172.0,8.694728560188828,6.894492525570417
1173.0,5.947245254090258,8.186387661643366
1174.0,6.156549456313422,7.383123020436159
1175.0,9.167790857188969,6.630674413443886
1176.0,8.303653493110613,6.378240432528395
1177.0,9.498797635619036,8.481803143093465
1178.0,6.4437844217151845,9.41365066876475
1179.0,8.759376756209958,9.677058746393914
1180.0,7.308701434940616,8.862127683488815
1181.0,6.289460866958899,8.487692480611441
1182.0,5.025439286650931,9.419130043835
1183.0,5.345903113409014,8.549305009179125
1184.0,7.519500955378218,10.133359559402045
1185.0,11.675111460792028,12.086418642988273
1186.0,9.544951481772882,14.881132216852121
1187.0,7.624472668689821,13.028354126859242
1188.0,7.236583492563036,10.358263084934997
1189.0,6.218213068075381,10.36638567307332
1190.0,7.3490258888764,9.514644449439885
1191.0,8.041371623393653,8.827310703982615
1192.0,7.3876212955677945,9.5370424487655
1193.0,9.080753812146416,11.66383612453636
1194.0,11.090168970814132,11.872235023041474
1195.0,11.004761904761905,14.709907834101383
1196.0,10.989277284477915,14.230810947510395
1197.0,8.753701622269679,11.496530665767487
1198.0,9.59296017384137,11.646927803379416
1199.0,9.083205949571017,13.346213143007006
1200.0,9.880371660859465,12.008954329174628
1201.0,9.422404555842792,11.824068037915403
1202.0,8.141463414634146,10.557041699449252
1203.0,7.644295830055075,10.06797797010228
1204.0,7.798151062155783,10.570967741935483
1205.0,6.911664044059796,11.27840283241542
1206.0,9.138749016522423,10.221538158929977
1207.0,8.72639653815893,9.153147128245475
1208.0,9.020456333595593,9.078992918961447
1209.0,7.362234461054287,8.707317073170731
1210.0,6.476947285601888,8.30251770259638
1211.0,6.933595594020456,8.420731707317072
1212.0,8.138353752201116,8.07322224719943
1213.0,6.770981791615151,10.035439848638116
1214.0,8.76085571915627,7.560788280693867
1215.0,9.81252856768199,8.83806526544528
1216.0,8.717511520737327,10.302457757296466
1217.0,10.200734329923943,10.817136862612866
1218.0,9.604821850061818,9.164943239294143
1219.0,11.186358697688359,7.33746393915552
1220.0,11.123824510134503,9.4292158405455
1221.0,8.246262785208497,8.806530291109363
1222.0,8.155232100708105,7.783595594020457
1223.0,7.874272226593234,8.74087332808812
1224.0,9.082415420928402,8.247108575924468
1225.0,11.111369000786782,6.738473642800944
1226.0,9.261506687647522,8.654838709677419
1227.0,7.8977970102281665,8.068214004720693
1228.0,8.19996066089693,8.252911093627066
1229.0,6.758595594020456,11.034795436664044
1230.0,8.05275373721479,10.41494885916601
1231.0,7.873210070810385,9.721046420141619
1232.0,6.587273800157356,9.334952793076319
1233.0,7.4457298340264515,7.947065490240156
1234.0,10.034558465400323,7.727968228991045
1235.0,10.73561125473006,9.70820126634446
1236.0,10.455531827207674,9.378097486043984
1237.0,8.704162451762766,10.864894533737964
1238.0,9.061729104884101,9.229741370614699
1239.0,10.083814985172186,11.628363997659829
1240.0,11.102342189675,10.435493957917247
1241.0,10.920151707720551,12.932841090197503
1242.0,8.030099457322116,13.268151465633764
1243.0,8.974621235046097,12.96998123827392
1244.0,11.596279933022654,16.294982751316347
1245.0,9.429925961790634,15.474792713187677
1246.0,8.253306357948372,12.763628189277284
1247.0,6.746393915552059,10.169233074819228
1248.0,9.117492787831104,11.856843130643288
1249.0,8.371885654340414,9.416619834401107
1250.0,6.23409388932599,10.435925967554606
1251.0,6.033329586752089,9.879022891611404
1252.0,8.537580736647577,9.063381699083308
1253.0,7.116548039448887,8.894397379832762
1254.0,7.548124531132784,11.954201050262565
1255.0,6.274676704890508,10.21477333619119
1256.0,8.065396967708827,9.098200987529111
1257.0,7.3513262177109535,8.532115478279914
1258.0,8.754783879901897,8.18900227100463
1259.0,7.579024044405633,10.897669338267292
1260.0,7.025379917748131,12.820263240562218
1261.0,6.684759195695467,11.906512422798812
1262.0,8.432254317934884,8.266809036753962
1263.0,10.562704657000486,6.322625604136226
1264.0,9.734323367427223,8.933398898505114
1265.0,15.550629425649094,13.522344610542879
1266.0,11.503540519276159,11.65633359559402
1267.0,7.89897718332022,11.119590873328088
1268.0,7.500944138473642,12.597088906372935
1269.0,11.135995279307632,11.625059008654603
1270.0,8.727675059008654,12.154464988198267
1271.0,7.504504327301337,11.382179386309993
1272.0,7.624775205125323,10.795237158592784
1273.0,9.915065435482429,9.450048273258343
1274.0,7.844865526553175,11.184976929705488
1275.0,6.267918601199483,8.406473515993579
1276.0,5.489828320119429,10.70531611058755
1277.0,6.5540539450059505,10.656421496153989
1278.0,7.887566970139747,8.119360458581543
1279.0,6.263197332434154,8.950769922445769
1280.0,6.31141583305234,9.03842119066352
1281.0,9.34618410700236,6.879041624517628
1282.0,9.117946124161701,7.371855681690458
1283.0,8.821722678056274,5.891304184931251
1284.0,11.380491551459293,6.592780337941628
1285.0,11.33963133640553,5.338248847926268
1286.0,7.84815668202765,6.188863287250384
1287.0,6.813594470046082,6.385560675883257
1288.0,9.034432954928626,5.8653019744483155
1289.0,9.909958412948184,5.433054213030609
1290.0,8.719010873731566,7.491843188282999
1291.0,8.326224555669874,7.9261045209707675
1292.0,8.271119190277332,6.768639818089071
1293.0,9.092099252701141,7.415304135937495
1294.0,7.995838412832906,7.730251914358917
1295.0,9.212206361694953,8.031621145704545
1296.0,7.396553842293326,10.387290637990507
1297.0,7.179843741423161,9.659673193559714
1298.0,10.743325639772312,9.535177348344055
1299.0,9.0003110533731,8.239324465262657
1300.0,7.895906903555157,8.214469471026293
1301.0,6.17309205350118,9.405114083398898
1302.0,5.373642800944138,9.682730133752951
1303.0,5.800196695515342,9.51610936270653
1304.0,5.118032295530329,9.352159904087518
1305.0,6.4089768086620955,10.195513468959575
1306.0,9.166843908779391,8.843131868131868
1307.0,9.708421954389696,9.538904643743354
1308.0,11.62310358144347,12.310227302202126
1309.0,12.411398180890707,13.233838689503521
1310.0,8.473726234426469,12.570912263713208
1311.0,7.1819180622681795,11.201443370424489
1312.0,5.480386647184444,11.805589899216965
1313.0,6.301955715409688,10.785957813495187
1314.0,8.217039451500504,9.787156719493463
1315.0,5.930549623468584,8.843932411674349
1316.0,4.854445318646735,7.438709677419354
1317.0,6.706136900078677,8.669000786782062
1318.0,6.105232100708103,8.089417781274587
1319.0,5.808320220298977,7.62653422501967
1320.0,7.133672398935971,7.923462965044396
1321.0,6.657311352039912,6.596626861772416
1322.0,8.933297690182032,6.246779205866538
1323.0,6.776955690094949,7.013948218196841
1324.0,5.86526777423709,6.62577820036514
1325.0,5.769498373274927,6.994720054436813
1326.0,7.025862650331572,7.233732344235885
1327.0,8.617723202577647,7.169468172792326
1328.0,7.046764827095275,5.459330860589712
1329.0,6.810872578771871,4.486628451537972
1330.0,5.919047619047619,3.5821812596006146
1331.0,6.66653178974186,5.171265595144431
1332.0,8.045554681353265,6.5877065302911095
1333.0,9.457454760031471,7.063611329661684
1334.0,7.241896144767899,7.426534225019669
1335.0,6.573328088119591,8.186978756884344
1336.0,6.150157356412274,7.836211644374508
1337.0,6.187175452399686,6.83463808025177
1338.0,4.4945712037765535,9.780645161290323
1339.0,5.0901914503015995,8.181189856563577
1340.0,6.6825465512719635,7.2396901289112146
1341.0,5.454491214266981,8.209144828420989
1342.0,4.740099659061107,7.509017732857229
1343.0,4.950676257914652,7.926720473337311
1344.0,4.989762466749092,8.476644749166386
1345.0,6.356478775617249,8.067911468285189
1346.0,6.587014349406166,9.637930388520475
1347.0,8.757371398598778,9.858604023828256
1348.0,7.5094076655052255,10.624847326814281
1349.0,6.795223108913117,10.216042860889438
1350.0,6.963126147390506,10.50771421078266
1351.0,6.666278895507849,10.333734217526507
1352.0,5.1586741281273145,9.479079090330073
1353.0,6.167368141955082,10.574590685999024
1354.0,7.039624275540877,10.013888576673786
1355.0,7.078836715343403,10.831291446555017
1356.0,6.003910854422262,10.121423816152376
1357.0,7.5072490583112135,10.224152768291242
1358.0,8.787062766763789,9.871321073366706
1359.0,8.666245032177368,10.104069363628767
1360.0,10.663617814129223,10.302868296141309
1361.0,10.589106815031284,12.967770971488518
1362.0,13.485407066052225,12.524296579371324
1363.0,16.665205499981266,11.998969690157729
1364.0,13.046734854445319,10.271911880409125
1365.0,8.159874114870181,7.974665617623916
1366.0,8.105114083398899,9.264673485444531
1367.0,7.193290161189452,9.6923238314269
1368.0,8.858250115999919,9.697460106114708
1369.0,6.961383122516088,10.516471988541225
1370.0,8.120030664326494,9.873892957291856
1371.0,9.655590619713358,8.069931379923512
1372.0,10.07634783260275,5.76755460642164
1373.0,7.212288786482334,6.945775729646698
1374.0,6.915821812596006,9.046274961597543
1375.0,8.824905398823573,7.825212618485632
1376.0,7.133650856093814,8.552775280056949
1377.0,7.270454460304972,6.969801618523098
1378.0,8.94972368963321,5.039906710127009
1379.0,7.785096099808923,4.613540144618035
1380.0,9.862178262335618,4.224787381514368
1381.0,9.424176688771496,5.822839159267168
1382.0,7.545959312127684,8.915720654902401
1383.0,5.999976367718302,10.347246839182322
1384.0,8.004165621946896,10.414931351103657
1385.0,8.701084347071758,16.965971819945068
1386.0,7.975042941585034,13.36885380551785
1387.0,7.495497473939645,11.139265612436343
1388.0,8.170589337229778,9.967659510696489
1389.0,6.3771908133827875,10.79201228878648
1390.0,7.113172979656063,7.762058371735791
1391.0,6.321614027200179,10.28319283653666
1392.0,7.454276722490727,10.057017346671163
1393.0,5.2511014948859165,8.188493312352477
1394.0,4.9360346184107,9.791424075531078
1395.0,6.117151848937844,10.449881982690794
1396.0,6.839457120377656,10.710306845003934
1397.0,8.541642313888577,7.9865647596568135
1398.0,8.423368363867969,7.83026113671275
1399.0,8.34353902064366,6.905453149001536
1400.0,9.889980488957672,6.492368286054361
1401.0,11.337079338180832,20.297240210615506
1402.0,11.987261335569753,20.170022450667613
1403.0,15.939657418374962,27.884460477890848
1404.0,17.468589527440827,25.0468132444529
1405.0,15.581098497620921,52.0296691768761
1406.0,14.245080738825822,54.18610955003559
1407.0,26.210266569255552,49.25458113221685
1408.0,36.5567269866247,43.04109624967217
1409.0,27.329185867895546,26.663517665130566
