time,emg_right_hand,emg_left_hand
0.0,7.325581395348837,9.372093023255815
1.0,6.3624953857512,8.092284976005907
2.0,5.834797674032744,7.941989728392775
3.0,20.269572247881946,6.546261873249962
4.0,18.959706477141932,7.346932377693727
5.0,27.890730958000823,6.864238882020157
6.0,20.38394964594807,6.068804091266719
7.0,15.01976321606534,6.029475291296691
8.0,12.304177438087745,7.2089449627215165
9.0,20.07193061331535,8.192760668390093
10.0,26.636656550897307,6.916676033119778
11.0,18.39833651792739,5.8545202502716265
12.0,14.821288074631898,6.6883968378854295
13.0,23.35483870967742,7.3271889400921655
14.0,28.26574500768049,6.858678955453149
15.0,21.534562211981566,5.99231950844854
16.0,15.549436139522685,8.167996703008505
17.0,12.62034018957701,8.633153497433591
18.0,10.82953055337005,6.995166910194448
19.0,8.293994230264882,6.716496197220037
20.0,7.4992319508448535,7.152560788280693
21.0,8.17723202577648,6.584541605784722
22.0,8.125098347757671,6.759244689221086
23.0,7.836107244447135,6.997437914825799
24.0,7.334025298069358,7.485186305957352
25.0,5.980309265871815,6.344009360689141
26.0,19.17875753278979,6.636618220489188
27.0,18.207946354720548,5.724607113316791
28.0,14.477918586789553,4.785215053763441
29.0,11.180491551459294,4.097043010752688
30.0,9.578955453149002,4.918279569892473
31.0,8.046850998463903,4.360675883256528
32.0,7.035601888276947,5.034736428009442
33.0,7.789771833202202,5.349016522423288
34.0,7.270577160840732,4.841520549998126
35.0,7.939429021018321,5.223779551159566
36.0,14.980218051028437,4.48761754898655
37.0,13.064853321344273,5.359521936233187
38.0,9.941946723614702,6.253797160091416
39.0,10.73249409913454,9.52190626053726
40.0,8.78906372934697,9.59950545127571
41.0,7.014516129032258,8.752073732718895
42.0,7.8889784946236565,8.269662058371736
43.0,10.555568356374808,7.866705069124423
44.0,9.009343973624068,6.488220748566933
45.0,9.995269941178673,7.193933348319658
46.0,7.964800869206849,6.728091866172118
47.0,8.28367239893597,5.79470608070136
48.0,8.174103630437227,6.150874826720617
49.0,7.479300138623506,6.430144992694167
50.0,6.9194297703345695,6.996504439698775
51.0,6.370544378254841,6.725517964857068
52.0,6.253778427185193,6.7114720317710095
53.0,7.400295979918325,6.397435465138061
54.0,6.246493199955041,6.578208946836012
55.0,6.348669027012851,6.68151998801094
56.0,5.841673223183845,6.398018058521599
57.0,5.785039612891698,6.493024153921085
58.0,6.741929719899822,6.799777222515224
59.0,6.436346449249674,6.426403166725747
60.0,5.939909015715466,6.148531844499587
61.0,16.74541533735082,5.973939501358856
62.0,21.551958525345622,7.882219662058371
63.0,14.25199692780338,7.022081413210445
64.0,11.763095238095238,11.116282642089093
65.0,11.535176651305683,14.224270353302611
66.0,10.974062418043534,25.498370237158593
67.0,10.921747030834364,16.78336330598329
68.0,17.219322056123787,14.030698550073058
69.0,19.718205574912893,28.673240980105653
70.0,15.148177288224495,366.4314937619422
71.0,20.37849462365591,297.8124423963134
72.0,24.638709677419357,178.03978494623658
73.0,21.303225806451614,94.62119815668203
74.0,15.670046082949309,51.33287250384025
75.0,11.075619122550673,18.368526844254617
76.0,16.216649807051063,12.687988460529766
77.0,16.04430800644412,14.314270727960736
78.0,16.843898692443148,13.786875725900117
79.0,12.949645948072384,11.353752201116482
80.0,12.977183320220298,9.72762354351654
81.0,9.415214866434379,10.646566258289312
82.0,10.701809598741148,10.672698662470495
83.0,9.42738001573564,10.646105428796222
84.0,8.595279307631785,12.933595594020456
85.0,7.600786782061368,10.078520849724626
86.0,7.424311565696302,8.930291109362706
87.0,7.24567269866247,7.915106215578285
88.0,10.48575924468922,7.586703383162864
89.0,10.253707242141546,7.2499475478625754
90.0,10.51395039526432,7.004812483608708
91.0,9.20339332186303,7.768661360931227
92.0,7.478712789963773,7.745217777239807
93.0,6.333534207727756,8.502191894127378
94.0,6.17855010187819,8.00017803465876
95.0,6.27863382355908,7.42818697169602
96.0,6.486782061369,6.874980330448466
97.0,5.769197482297403,5.377812745869394
98.0,5.454760031471283,5.779228953579858
99.0,5.699213217938631,7.2720692368214
100.0,5.467151848937844,7.731943351691581
101.0,5.595889063729347,9.553619197482297
102.0,6.341581431943352,8.53920141620771
103.0,5.970495672698663,7.970121951219512
104.0,5.508634933123524,8.037883556254917
105.0,5.482140047206924,6.635877261998427
106.0,7.022423288749017,6.762785208497246
107.0,7.288733886098166,6.49091670197099
108.0,7.115570719602978,6.9589123242349045
109.0,7.269478908188585,7.967762613730356
110.0,7.270338532435306,7.1791002008743945
111.0,5.975895072669266,7.992372681082358
112.0,5.988940092165898,6.8630184331797235
113.0,6.521889400921658,6.718202764976958
114.0,6.613364055299539,8.659907834101382
115.0,6.652163650668765,9.439063729346971
116.0,5.7663650668764745,8.644492525570417
117.0,6.776160503540519,8.232651455546812
118.0,6.27043666404406,8.164083398898505
119.0,9.466074706830018,7.659960286238807
120.0,7.88937094900903,7.589696901577311
121.0,7.504087520137874,7.1548012438649735
122.0,8.985249709639954,8.367816867108763
123.0,10.752300400884195,9.067914278221123
124.0,10.568469708890637,9.08779738488629
125.0,8.59661078496641,8.709159238348853
126.0,7.5265508684863525,8.193997400449014
127.0,8.705518137776203,8.57564693371145
128.0,6.683250620347394,8.81501240694789
129.0,6.527915632754342,9.022828784119106
130.0,7.789516129032258,8.390322580645162
131.0,6.758064516129032,9.375
132.0,5.535641227380015,8.495535011801731
133.0,5.888788355625492,7.765912667191188
134.0,5.583851298190401,6.9820023603461845
135.0,5.705232100708104,7.094630212431156
136.0,5.701809598741148,7.34287962234461
137.0,5.075295043273013,8.73501180173092
138.0,5.082808811959087,9.272344610542879
139.0,5.23770653029111,7.933575924468921
140.0,5.300554494024203,8.96239088082125
141.0,6.462394699452135,9.267247963156697
142.0,7.069100575532518,8.62636591706222
143.0,7.258340610346904,12.13052166820853
144.0,6.458359919650242,9.546142030012998
145.0,7.000454921422663,8.368155500413565
146.0,7.055645161290322,8.391935483870967
147.0,6.158333333333333,5.82342549923195
148.0,6.245816942040388,7.257326439623843
149.0,10.417340114645386,8.063417444082276
150.0,10.19904181184669,5.978886141395976
151.0,8.559739237945376,7.561256603349443
152.0,8.116428758757634,7.5192611741785615
153.0,8.239410288112097,7.745075118953954
154.0,7.063099921321794,8.156254917387884
155.0,7.604091266719118,7.213611329661683
156.0,6.711565696302124,7.563532651455546
157.0,6.695043273013375,9.227340676632572
158.0,7.477859578134951,8.7242694166573
159.0,9.034513506425387,8.881278333520662
160.0,7.393653291371622,7.8780113146753585
161.0,6.453411262223222,6.9935558802592634
162.0,6.492244576823648,6.558146940916414
163.0,5.8823386160128885,6.683957139110562
164.0,5.718294556217451,6.872279045371099
165.0,5.433891573938781,6.309074219774455
166.0,5.698819826907947,7.106687647521636
167.0,6.511723052714398,8.007081038552322
168.0,6.640283241542092,8.834933123524783
169.0,6.505507474429583,8.947757671125098
170.0,6.201612903225806,7.8516129032258055
171.0,6.20483870967742,7.773387096774194
172.0,6.158870967741936,8.879838709677419
173.0,6.8032258064516125,7.201612903225806
174.0,6.344354838709678,7.455645161290322
175.0,8.27741935483871,7.477419354838709
176.0,7.6903225806451605,7.0854838709677415
177.0,6.633832565284178,6.9828725038402455
178.0,6.054750665018171,6.031306432879997
179.0,6.325762429283278,8.02613708740774
180.0,6.084252182383574,7.221536285639354
181.0,6.295755123449851,7.334558465400322
182.0,6.489889850511409,8.703147128245476
183.0,6.304032258064515,6.888709677419355
184.0,6.375,6.419354838709677
185.0,6.278225806451612,7.763709677419355
186.0,8.97564909520063,7.7400668764752165
187.0,7.742022231636708,8.804266275293026
188.0,6.72746272872158,8.823504105388448
189.0,7.64050162399887,9.487647017289031
190.0,7.144729568883777,8.160808166394318
191.0,7.049941495692872,7.921474106800622
192.0,6.831412273800157,7.943135326514554
193.0,7.4649881982690784,6.927616050354051
194.0,7.285916601101494,6.979543666404405
195.0,6.972619984264359,7.910306845003934
196.0,6.345719530928028,8.390375032782586
197.0,5.8404443445356105,7.6657618672960925
198.0,12.016602974785506,9.013526094938369
199.0,11.028462777715333,9.346682402307893
200.0,8.800384024577571,9.460752688172043
201.0,14.604032258064516,10.691129032258065
202.0,10.144354838709678,9.955645161290322
203.0,8.577419354838709,10.399999999999999
204.0,6.915322580645161,9.29032258064516
205.0,5.9322580645161285,8.529838709677419
206.0,5.586290322580645,8.009677419354839
207.0,9.630645161290323,9.173387096774194
208.0,8.619354838709677,8.218548387096774
209.0,7.97741935483871,8.621774193548386
210.0,6.566129032258065,7.475
211.0,6.472235023041474,7.755837173579109
212.0,6.695431044172192,7.22398467648271
213.0,5.78060301225132,6.388398711176052
214.0,5.12701472406429,7.014419654565209
215.0,6.248184781386984,7.559225956314863
216.0,7.305428796223446,9.482454760031471
217.0,6.2604248623131395,6.941148701809598
218.0,8.366483084185681,7.947836349331235
219.0,8.819354838709678,7.179032258064516
220.0,8.055900865460268,6.543863099921321
221.0,9.301145517215542,6.026693454722565
222.0,7.914036566632948,9.562727136487954
223.0,7.479323554756284,26.70628489003784
224.0,6.475253830879322,17.0004870555618
225.0,6.384519126297254,11.487733693005133
226.0,7.978127458693941,8.116601101494886
227.0,8.13933910306845,6.507553107789143
228.0,6.999567269866247,4.783516915814319
229.0,8.377439024390243,3.6293666404405975
230.0,9.983477576711252,3.8989575137686856
231.0,7.985287175452401,4.15633359559402
232.0,7.53552321007081,4.198151062155783
233.0,6.782277734067663,3.5781077891424076
234.0,6.11331628638867,3.4370377655389452
235.0,6.885287175452399,4.940696302124311
236.0,6.6861919748229734,5.418332022029897
237.0,6.763709677419355,5.711290322580645
238.0,6.729838709677418,7.1298387096774185
239.0,6.294354838709676,7.228225806451613
240.0,6.092080231596361,6.621298593879239
241.0,5.7110774879460955,6.376011216687849
242.0,6.757958098811757,7.453328188989085
243.0,7.123402731545926,6.839419798664488
244.0,6.7576691077084465,7.9358389315903075
245.0,5.618371361132966,7.135247836349331
246.0,5.8968332022029895,7.081785995279308
247.0,7.184303697875688,7.236860739575137
248.0,7.755645161290323,7.426612903225806
249.0,7.413709677419355,8.381451612903225
250.0,7.868775847808105,8.13833746898263
251.0,6.777129859387923,8.201426799007443
252.0,7.471629445822995,8.961600496277915
253.0,8.208395368072788,9.223138957816378
254.0,8.196939619520265,7.7256823821339955
255.0,8.01774193548387,9.529838709677419
256.0,8.00725806451613,10.103225806451611
257.0,8.736290322580645,8.418548387096774
258.0,7.617741935483871,7.8637096774193544
259.0,7.225806451612904,7.855645161290322
260.0,7.7185483870967735,7.243548387096775
261.0,10.416551459293395,7.6535714285714285
262.0,10.368612078977932,6.977129931437563
263.0,8.766691956090067,6.403444981454422
264.0,6.930523397399872,6.430754748791727
265.0,10.171713311603163,6.564167696976509
266.0,9.217724787669713,7.822376888781294
267.0,10.442851378885997,8.183493715830458
268.0,14.590033085194376,8.03564929693962
269.0,13.569151082329682,8.218257378603564
270.0,12.915476406625107,6.934187697956384
271.0,12.244669551534225,8.198524783634934
272.0,8.863867033831628,7.510955940204563
273.0,8.591896144767897,7.393233674272226
274.0,8.402557041699449,8.496774193548386
275.0,7.383654602675058,8.182533438237607
276.0,6.513198269079465,7.719492525570416
277.0,6.223131392604248,7.5682140047206925
278.0,7.952950432730134,10.982612116443745
279.0,7.7066089693155,9.277301337529504
280.0,7.902498033044847,9.054779701022817
281.0,7.921813532651456,6.615696302124311
282.0,8.069905586152636,8.475668764752164
283.0,8.688119590873328,12.984815106215578
284.0,8.541148701809597,8.87439024390244
285.0,7.495574350904799,7.624291896144768
286.0,7.775609756097561,8.194807238394963
287.0,9.356412273800156,7.816050354051927
288.0,15.934382376081825,9.846892210857593
289.0,15.483870967741936,8.019354838709678
290.0,17.06935483870968,8.499193548387098
291.0,14.520967741935483,8.329838709677421
292.0,10.608064516129033,7.746774193548387
293.0,9.128225806451614,6.659677419354839
294.0,9.021774193548385,7.127419354838709
295.0,10.502315963606286,7.6947684036393715
296.0,8.912113922007705,8.423633218342108
297.0,7.747134297645706,7.603121406524238
298.0,8.426792955274465,8.5342219935847
299.0,8.092428735701748,7.267917448405253
300.0,6.933641993988177,7.513280477717928
301.0,7.681927212572374,10.138544251447478
302.0,7.146164437450826,8.786585365853659
303.0,8.123485444531864,9.907002360346183
304.0,9.07142014162077,10.107533438237608
305.0,8.555468135326514,10.154169944925256
306.0,12.000314712824547,10.589181746656177
307.0,9.86774193548387,9.65241935483871
308.0,12.787096774193548,10.53306451612903
309.0,9.536290322580644,9.825
310.0,13.710483870967742,10.065322580645162
311.0,16.514439324116744,9.68352534562212
312.0,16.26205837173579,9.437327188940092
313.0,12.299597242516203,11.005288299426773
314.0,9.98205668577423,10.361515117455323
315.0,9.01723802030647,9.77591884905024
316.0,8.56038552321007,9.149940991345396
317.0,9.290676632572776,8.491502753737215
318.0,11.330232100708102,9.695790715971675
319.0,9.038906372934697,8.394669551534225
320.0,7.934736428009441,7.283792289535799
321.0,7.379464988198269,7.645928402832415
322.0,8.107435090479939,7.019315499606609
323.0,8.279209284028324,6.1588316286388665
324.0,7.59162077104642,7.260464201416207
325.0,7.234834775767112,6.29860346184107
326.0,8.088749016522424,7.0985444531864665
327.0,10.170259638080251,5.963119590873328
328.0,9.21392604248623,6.015204563335956
329.0,7.314531259456515,5.771591115414876
330.0,8.010845488107487,7.45731404708588
331.0,7.242873570174908,6.685069297343097
332.0,6.844882890516249,6.902566119954003
333.0,14.631017369727047,8.334367245657567
334.0,13.149999999999999,7.999193548387096
335.0,11.093548387096774,8.395967741935483
336.0,9.821931549960661,7.3116837136113295
337.0,12.369807238394966,7.3186860739575135
338.0,11.203503701910467,7.487155278500675
339.0,10.229574431600394,8.04680344570195
340.0,8.59502915128407,8.333079142205813
341.0,7.928356432447699,7.8339667937622295
342.0,8.56645988420182,6.986062861869313
343.0,8.631451612903225,6.8395161290322575
344.0,11.558870967741935,6.468548387096774
345.0,10.626003147128245,7.375255704169945
346.0,9.978894571203776,7.157612116443745
347.0,9.186624704956728,8.756628638867033
348.0,8.026376868607397,8.398878835562549
349.0,7.188591660110149,7.8933910306845
350.0,7.2070416994492525,7.283910306845003
351.0,8.473387096774193,7.091129032258065
352.0,7.236290322580645,7.909677419354839
353.0,6.8999999999999995,7.529032258064516
354.0,9.95,7.645967741935484
355.0,8.319099134539732,7.201534225019669
356.0,8.002694728560188,6.108831628638867
357.0,7.877557041699449,5.958044846577498
358.0,6.9559724828017515,6.34385906514152
359.0,6.574760434949262,6.6598327583772114
360.0,6.469520264681555,6.769334160463193
361.0,5.828878936432044,5.71980673404749
362.0,7.863416651536243,5.320210212027678
363.0,7.497364280094414,4.817269866247049
364.0,7.503520849724627,6.166699449252557
365.0,7.816679779701022,6.830527143981117
366.0,8.695121951219512,7.002989771833202
367.0,8.00837922895358,19.51195908733281
368.0,6.8102478363493315,22.34921321793863
369.0,9.012332808811959,13.697226593233673
370.0,16.09205350118017,10.276435877262
371.0,13.764752163650668,7.3205153422501965
372.0,10.840440597954366,7.170338316286388
373.0,10.0535193366822,7.953685771349028
374.0,9.260669975186104,8.229714640198512
375.0,8.599689826302729,7.281389578163772
376.0,7.626054590570719,7.117307692307692
377.0,9.104962779156327,7.433250620347394
378.0,10.740322580645161,7.309677419354839
379.0,11.141935483870967,6.5
380.0,10.312903225806451,6.799193548387096
381.0,10.633870967741935,6.269354838709678
382.0,11.521774193548387,6.274193548387097
383.0,10.453225806451613,6.85241935483871
384.0,11.441935483870967,7.797580645161291
385.0,10.613709677419354,7.3072580645161285
386.0,8.616129032258064,7.186290322580645
387.0,7.394472856018883,6.827084972462628
388.0,7.962981904012588,7.108103855232101
389.0,7.291168371361133,7.324213217938631
390.0,6.8169551534225015,8.339122738001574
391.0,6.06089693154996,6.959480723839497
392.0,6.424547600314713,6.098072383949646
393.0,6.54516129032258,6.633064516129032
394.0,12.285483870967742,7.168548387096774
395.0,14.929032258064517,6.454032258064515
396.0,11.154779701022818,5.628815892997639
397.0,9.723033044846577,4.957494099134539
398.0,8.340145554681353,6.595279307631785
399.0,6.026927616050354,6.308929976396538
400.0,5.60582218725413,6.673013375295042
401.0,5.239732494099134,5.8005507474429585
402.0,6.213099921321794,5.801534225019669
403.0,6.963731220261511,6.737787081787868
404.0,6.423584728934847,7.765008804465925
405.0,7.163011876662545,9.107130680753812
406.0,7.927473680266756,8.590258888764003
407.0,7.749732119441009,8.356498445168784
408.0,8.331471282454759,7.499370574350905
409.0,13.220102281667977,7.738276947285602
410.0,11.567643587726199,8.089437450826122
411.0,9.439063729346971,6.858025177025963
412.0,8.61331628638867,7.679996066089693
413.0,7.222521636506688,6.2626278520849725
414.0,6.357631785995279,6.408733280881195
415.0,6.922383949645948,7.536191974822974
416.0,22.64586939417781,6.450354051927615
417.0,19.905466117936612,6.026242207831507
418.0,19.005526135286168,5.734049506748169
419.0,16.530585648288245,7.689605398535376
420.0,11.66592224979322,8.053535980148883
421.0,8.765219189412738,7.836848635235732
422.0,11.348878835562548,7.653520849724627
423.0,9.316168371361131,7.4654602675059
424.0,7.958084185680566,6.869020456333596
425.0,8.64315499606609,5.827655389457121
426.0,7.372383949645948,6.314634146341463
427.0,6.543863099921321,7.115145554681353
428.0,6.013709677419355,7.5572580645161285
429.0,6.199999999999999,7.533870967741935
430.0,6.148288749016523,7.917643587726199
431.0,6.4407918399460495,9.169785695552807
432.0,5.339603237046195,8.410266569255555
433.0,6.399640328200517,7.211988123337454
434.0,7.148207260874452,7.459623093926792
435.0,6.20040232518596,6.972321986956133
436.0,5.753196554298049,9.642458996550262
437.0,5.517038875103391,8.529962779156328
438.0,8.455057596481671,9.605235126792955
439.0,8.539625572434385,9.813907885977123
440.0,8.540243902439023,10.239732494099133
441.0,9.099960660896931,10.728737214791503
442.0,7.977498033044846,10.16671911880409
443.0,6.800550747442958,9.352124311565696
444.0,8.11317859952793,8.696223446105428
445.0,8.35163257277734,8.143548387096773
446.0,6.731864673485445,7.3741935483870975
447.0,6.494885916601101,6.66876475216365
448.0,6.09091454048181,7.189528305421303
449.0,5.629328237982841,7.102828668839684
450.0,5.433074819227455,7.078164924506387
451.0,5.5146294631149075,7.143822824172942
452.0,6.0754598928477765,8.209411412086471
453.0,8.87513768686074,9.443312352478364
454.0,8.317466561762393,9.265696302124312
455.0,7.232297403619198,7.691070023603462
456.0,7.022836349331236,7.78109756097561
457.0,6.527143981117231,8.103855232100708
458.0,6.31699449252557,8.874744295830055
459.0,5.305546813532652,8.66601101494886
460.0,4.760483870967741,8.246774193548386
461.0,6.090322580645161,6.796774193548387
462.0,5.889516129032258,7.726612903225806
463.0,5.298308418568057,8.490892997639653
464.0,6.113670338316286,7.992623918174665
465.0,5.697560975609756,6.967682926829268
466.0,6.742328874901652,7.022147915027538
467.0,7.266325727773406,5.7715578284815106
468.0,7.646774193548387,6.955645161290323
469.0,6.564516129032258,7.382258064516129
470.0,5.992230527143981,7.660444531864673
471.0,6.23184500393391,7.606766325727773
472.0,6.314693154996066,8.499429583005508
473.0,7.57397718332022,7.869236821400472
474.0,7.98174665617624,7.215263571990558
475.0,6.38095987411487,7.467663257277733
476.0,7.730605822187253,6.154209284028324
477.0,6.535641227380015,7.27639653815893
478.0,6.416129032258064,6.824193548387097
479.0,6.460503540519275,7.245849724626279
480.0,5.927025963808024,8.091876475216365
481.0,9.708674272226592,8.585857592446892
482.0,14.548918174665618,11.131077891424075
483.0,24.578088119590873,12.107474429583004
484.0,31.722392379453748,12.750882319883106
485.0,36.50778352253569,16.0257558727661
486.0,33.44690907047319,14.175368101607283
487.0,28.414642576149262,13.17659042373834
488.0,25.251695328013188,11.86143269266794
489.0,17.61893522161028,11.444157206549024
490.0,16.520325203252035,11.307444456933048
491.0,31.82271177550485,11.7634783260275
492.0,55.781930238657225,9.775916975759618
493.0,39.84039563897943,9.77726574500768
494.0,25.533101045296164,7.511520737327189
495.0,14.758682702034394,8.569293020119142
496.0,11.727810872578772,7.466973886328725
497.0,12.096399535423924,5.670150987224158
498.0,9.431205275186393,6.715641976696265
499.0,7.737373877106371,6.300867189458849
500.0,7.914398976318725,6.710386387805743
501.0,7.913958320724646,6.5270057899090155
502.0,10.522911497105046,7.624793217535152
503.0,9.879197684036393,7.8023159636062855
504.0,7.42016129032258,7.683713611329662
505.0,7.723072383949645,8.156884343036978
506.0,11.726612903225806,7.236447678992919
507.0,8.420279307631786,6.627045633359559
508.0,8.217656196413081,6.837499243478787
509.0,7.318505517561379,6.136294861707922
510.0,7.000794851620972,6.103867336440114
511.0,6.38607799229357,4.821013133208255
512.0,6.73198470818455,5.383755976517581
513.0,7.390342250196696,7.021479150275374
514.0,5.644276160503541,8.016837136113296
515.0,6.741994492525571,7.4214201416207715
516.0,6.646734854445318,6.975609756097562
517.0,6.981782969194455,7.322338558373176
518.0,9.438491799310052,7.961011922774315
519.0,12.616413484234098,12.598208557767961
520.0,10.9049022574593,9.311928826484294
521.0,8.650248138957817,9.59727047146402
522.0,8.504032258064516,9.12741935483871
523.0,11.004032258064516,9.057258064516128
524.0,8.60177025963808,7.716679779701021
525.0,8.055743509047993,6.442112509834775
526.0,6.757061369000787,6.122403619197483
527.0,6.650708103855232,6.689830841856805
528.0,6.8472069236821405,6.447993705743509
529.0,6.531864673485444,5.244846577498032
530.0,6.823054731788012,5.291319171256228
531.0,6.832691803344832,5.2597429845266195
532.0,6.003836066896649,5.143128769997377
533.0,6.636457765942424,6.145915289798059
534.0,6.037652565111259,6.279438762129557
535.0,6.277576711250983,5.760228166797797
536.0,6.92588512981904,6.31801730920535
537.0,7.973564122738001,7.306530291109363
538.0,6.953737214791502,8.271675845790714
539.0,6.317781274586939,7.375491738788355
540.0,6.200590086546026,7.958792289535798
541.0,6.427773406766326,7.519984264358772
542.0,5.8901258851298195,7.077065302911093
543.0,5.261585365853659,6.887391817466562
544.0,5.610228166797796,7.403776553894572
545.0,6.706766325727774,7.3206136900078675
546.0,6.858497246262785,6.656231717404022
547.0,6.57983870967742,5.259036393713814
548.0,6.801612903225807,5.346050454921423
549.0,6.479032258064516,5.449234904880067
550.0,10.288709677419355,9.381472291149711
551.0,9.173072383949645,8.923996852871754
552.0,8.161172305271439,7.49506294256491
553.0,6.964555468135327,7.712726199842644
554.0,6.517623918174666,7.303009441384736
555.0,6.7378442171518484,6.265617623918175
556.0,7.672912505799996,5.842809013698076
557.0,6.237715104198188,6.747210958461942
558.0,6.715553067441345,6.692094857673142
559.0,5.7243382961124905,6.267762613730356
560.0,5.717332405333979,6.935425366660614
561.0,5.552537372147915,6.513335955940205
562.0,6.021007081038553,8.345731707317073
563.0,6.558438237608183,7.514457120377656
564.0,5.563493312352478,6.488276947285602
565.0,5.5534225019669545,5.961290322580645
566.0,6.7269079464988195,6.314948859166011
567.0,6.2789535798583795,7.472029897718333
568.0,5.695967741935483,8.854032258064516
569.0,5.6258064516129025,10.06774193548387
570.0,6.555645161290323,8.816129032258065
571.0,6.403225806451612,7.965322580645161
572.0,5.894354838709678,7.171774193548387
573.0,5.733890637293469,7.085837922895358
574.0,6.08105822187254,7.815499606608968
575.0,5.436900078678207,7.631943351691581
576.0,5.814319433516916,7.339535798583793
577.0,6.27415723536888,7.708001977042103
578.0,5.300729286449192,8.132915229276362
579.0,6.005203352902015,7.8757318081865675
580.0,6.949779095805846,6.617704613770703
581.0,6.781419839012285,7.014517137727209
582.0,6.5383525994068865,7.043652282676673
583.0,7.50403074502209,6.292479170449273
584.0,7.050402469285238,6.506723456192377
585.0,6.582190481954448,6.741898594455636
586.0,9.070972353112401,7.859889389393716
587.0,8.034363643175602,7.5143119403544265
588.0,6.941650743696377,7.656841257352665
589.0,6.876568880896182,7.4205724776141775
590.0,6.022693042598629,7.417889925443033
591.0,6.38868907122251,5.977838971938106
592.0,5.7815771954245605,6.803849179931005
593.0,5.930678448223688,7.999800278399807
594.0,5.384615384615385,7.148759305210918
595.0,6.001985111662531,6.64212158808933
596.0,6.0997730436361435,7.374689826302729
597.0,6.867958300550747,7.114476789929189
598.0,7.326553894571203,7.261742722265932
599.0,8.113276947285602,9.232081038552321
600.0,9.89897718332022,7.935798583792289
601.0,10.591109362706531,7.838867033831629
602.0,9.328442171518489,7.743981117230527
603.0,7.900649095200629,9.340912667191189
604.0,6.565676632572777,9.301042486231314
605.0,12.978933910306843,9.490952006294258
606.0,12.616876475216365,8.623623131392606
607.0,11.726986624704956,8.97592446892211
608.0,12.584264358772618,10.119748229740363
609.0,9.96445762472513,8.9989287659626
610.0,15.241158788759105,10.564216546631968
611.0,14.946071133167907,12.202171215880893
612.0,18.97706782464847,12.906327543424318
613.0,20.810711331679073,10.774937965260545
614.0,15.500806451612902,9.35
615.0,11.549193548387096,8.06774193548387
616.0,9.462096774193547,8.923387096774192
617.0,7.576199842643588,8.562214791502754
618.0,7.758064516129032,7.614811172305272
619.0,11.357356412273798,7.24213217938631
620.0,9.046420141620771,6.657356412273799
621.0,7.742564909520063,6.20125885129819
622.0,7.874193548387097,6.836664044059796
623.0,7.5824154209284025,7.322659323367427
624.0,6.584677419354839,6.711290322580645
625.0,6.537903225806451,7.102419354838709
626.0,10.583870967741934,9.430645161290322
627.0,9.073387096774194,8.013709677419355
628.0,9.050806451612903,7.816935483870968
629.0,8.559677419354838,8.364516129032257
630.0,7.787903225806451,7.726612903225806
631.0,7.081451612903226,6.695967741935483
632.0,7.005645161290323,6.80241935483871
633.0,6.7387096774193544,6.091129032258065
634.0,6.75,6.658064516129032
635.0,6.642741935483871,6.298387096774194
636.0,7.266129032258064,6.409677419354838
637.0,7.004838709677419,7.003225806451613
638.0,6.829032258064515,6.445967741935483
639.0,7.6661290322580635,6.512096774193548
640.0,8.437096774193549,5.546774193548387
641.0,8.362903225806452,5.881451612903225
642.0,7.9564516129032254,6.573387096774193
643.0,7.664516129032258,7.6177419354838705
644.0,6.625,8.231451612903225
645.0,6.881451612903225,7.421774193548387
646.0,6.5717741935483875,7.894354838709678
647.0,6.7387096774193544,8.010483870967743
648.0,6.57983870967742,8.04758064516129
649.0,7.8435483870967735,8.075806451612904
650.0,9.483064516129033,7.596774193548386
651.0,8.72983870967742,7.6
652.0,7.904838709677419,7.088709677419354
653.0,7.901888276947286,8.549822974036193
654.0,14.747718332022028,8.014830841856806
655.0,13.251514555468136,7.8205153422501965
656.0,11.319335169158144,7.979248623131392
657.0,9.713296616837134,7.456963021243116
658.0,7.9299763965381596,8.871203776553894
659.0,6.952084972462628,8.1985051140834
660.0,6.70121346002542,7.404140692771692
661.0,12.683808933002481,10.38397435897436
662.0,11.437468982630273,10.254487179487178
663.0,12.625186104218361,9.903453267162945
664.0,10.80210918114144,8.623904052936311
665.0,8.752419354838711,7.882258064516128
666.0,12.41532258064516,8.515322580645162
667.0,12.14758064516129,7.128225806451613
668.0,13.041935483870967,6.712903225806452
669.0,10.05483870967742,6.97983870967742
670.0,23.964516129032255,7.155645161290323
671.0,73.25725806451612,6.84758064516129
672.0,46.38629032258064,7.767741935483871
673.0,37.45887096774193,7.6903225806451605
674.0,50.39516129032258,7.870161290322581
675.0,38.36166404405979,7.2410110149488585
676.0,26.98876868607396,7.214673485444532
677.0,20.522600314712825,7.5221282454760034
678.0,13.834284028324154,7.096951219512195
679.0,9.949803304484657,7.135169158143194
680.0,12.248151062155783,6.996066089693155
681.0,9.39417781274587,8.324311565696302
682.0,7.719354838709677,7.958064516129031
683.0,8.714516129032258,7.070967741935484
684.0,10.721774193548386,5.496774193548387
685.0,9.197580645161288,5.760483870967741
686.0,9.041935483870967,6.751612903225806
687.0,9.129032258064516,5.975806451612903
688.0,9.441129032258065,5.481451612903226
689.0,7.998304383788255,5.957857733664185
690.0,8.258829611248967,6.184574028122415
691.0,7.3677212572373865,5.689061207609595
692.0,7.110876757650951,7.894933829611248
693.0,8.257346325324296,7.063900825112469
694.0,8.048229740361919,7.520653029110935
695.0,7.361447678992919,7.974960660896931
696.0,8.387981904012587,8.031431943351691
697.0,8.624232887490166,7.210070810385522
698.0,8.236363452964554,7.0650809982045235
699.0,9.489070790211624,9.004688414129799
700.0,10.728799753878432,10.737198652383547
701.0,9.091258649559201,12.23878028606589
702.0,13.139177711876375,12.027454659161975
703.0,10.287372147915027,10.973446105428796
704.0,9.087710060723436,9.692202788032843
705.0,15.114744094091066,15.227690693780385
706.0,12.997497932175353,13.859636062861869
707.0,14.697834331941333,14.081017874074522
708.0,14.265734632532428,13.579130101474712
709.0,11.533280881195909,11.917191188040912
710.0,13.133575924468921,10.918273013375295
711.0,12.096223446105428,11.670023603461841
712.0,13.89948859166011,12.237922895357986
713.0,12.704032258064515,11.716129032258065
714.0,16.34423682140047,12.17663257277734
715.0,22.176553894571203,13.600413060582218
716.0,24.341994492525572,15.348819826907947
717.0,18.601239181746656,15.776829268292683
718.0,16.881667977970103,14.984382376081825
719.0,18.898347757671125,11.934756097560975
720.0,16.68143194335169,12.037136113296617
721.0,16.979032258064514,10.996774193548386
722.0,21.261290322580642,9.548387096774192
723.0,26.19435483870968,8.920967741935485
724.0,23.17118410700236,8.39400078678206
725.0,28.71782061369001,8.556864673485444
726.0,20.03590723464838,8.231062905099098
727.0,14.88689539545165,15.020979918324528
728.0,48.16428758757634,14.763253531152822
729.0,67.4011839196733,12.352515829305759
730.0,56.899647821363004,10.062174515754375
731.0,38.868794724813604,8.183545015173653
732.0,23.811502004420966,6.22418792851523
733.0,15.426600726836762,5.184871304934247
734.0,10.168768498744896,5.039563897943127
735.0,9.692566782810685,6.548106103180848
736.0,9.84390243902439,6.616679779701022
737.0,15.301107547055619,10.297918053622222
738.0,13.938988077225684,10.638258790776494
739.0,17.650139199903165,14.257032621194698
740.0,18.338444894994858,12.4495233916359
741.0,14.962751633365322,8.808344645126706
742.0,15.599483908433555,11.40913510171968
743.0,18.192080663894195,9.16948690569855
744.0,14.681120977108387,7.412566033494436
745.0,11.541268592409425,7.458525345622119
746.0,10.345672698662469,6.329032258064517
747.0,9.251907946498818,4.864752163650668
748.0,7.781923682140047,4.786014948859166
749.0,8.84199449252557,6.42486231313926
750.0,9.351239181746655,7.115656963021243
751.0,12.384893784421713,6.777183320220299
752.0,11.501888276947286,7.186467348544452
753.0,8.325845790715972,8.509677419354839
754.0,8.983064516129032,8.680645161290322
755.0,9.352419354838709,6.962903225806452
756.0,8.162655086848634,6.805851943755169
757.0,8.220843672456574,6.830748552522746
758.0,11.510421836228288,9.478680727874277
759.0,9.573759305210919,8.506679073614558
760.0,9.275186104218362,8.825516956162119
761.0,7.693273013375295,8.623505114083398
762.0,7.538867033831629,7.78859166011015
763.0,7.07104642014162,7.299940991345396
764.0,10.83068450039339,8.121341463414634
765.0,10.783949645948072,7.427301337529505
766.0,8.540676632572778,6.864319433516917
767.0,9.983005507474429,6.313591660110149
768.0,9.874567269866247,5.534618410700236
769.0,9.69897718332022,5.591502753737215
770.0,14.747993705743509,13.902360346184105
771.0,19.791939518650768,15.675634973471322
772.0,14.371776210938288,11.228140067380822
773.0,12.655646169985273,10.697537775625895
774.0,9.268548891444249,9.217317274909721
775.0,9.24859387923904,7.922663358147228
776.0,10.013709677419355,6.769354838709677
777.0,10.048387096774194,6.424193548387096
778.0,7.53225806451613,5.592741935483871
779.0,7.745450785773367,5.676716294458229
780.0,9.073531844499586,7.136745244003309
781.0,7.594830438378825,6.013937138130687
782.0,10.244287760495471,8.246110976618452
783.0,14.32859549315096,8.827254937561783
784.0,12.550688434303698,9.518804091266718
785.0,12.59832808811959,9.83440204563336
786.0,9.423760818253342,10.244217151848938
787.0,7.880039944320038,8.912300026226069
788.0,11.1851812624826,11.493758195646473
789.0,12.607382133995038,11.442473118279569
790.0,15.31377171215881,16.190591397849463
791.0,11.646401985111662,11.681182795698925
792.0,15.588709677419356,14.542741935483871
793.0,14.78467741935484,13.537096774193547
794.0,14.594964594807237,11.935601888276945
795.0,14.893450039339104,10.80973642800944
796.0,12.699547600314713,9.377852084972462
797.0,14.34972462627852,11.210916601101493
798.0,18.949055861526357,12.757474429583006
799.0,19.02370180959874,15.023505114083399
800.0,22.284834775767113,18.717800944138475
801.0,19.05609756097561,16.24287962234461
802.0,22.347875688434303,15.726475216365067
803.0,28.23402832415421,16.64677419354839
804.0,19.94038158929976,13.015755310778914
805.0,21.75688434303698,12.733280881195908
806.0,22.29543666404406,15.148308418568057
807.0,20.377694728560186,12.284697088906372
808.0,23.502065302911095,9.215519276160503
809.0,31.2756294256491,8.917033831628638
810.0,21.437726199842643,7.991660110149489
811.0,23.466324791128095,10.657719830654528
812.0,18.244855943951144,9.406279270165973
813.0,16.315169907459442,9.733784796373309
814.0,14.883391405342625,9.708021430444719
815.0,13.893701996927803,9.8468509984639
816.0,10.691935483870967,8.216129032258063
817.0,9.576809598741148,9.086742722265932
818.0,12.39274193548387,9.506412273800159
819.0,13.721459480723839,13.170338316286388
820.0,17.24661683713611,11.006136900078678
821.0,16.893469708890635,7.535326514555468
822.0,23.37883556254917,6.317623918174666
823.0,19.25078678206137,4.98579858379229
824.0,16.208870967741934,4.018548387096774
825.0,12.212096774193547,3.5693548387096774
826.0,14.708064516129033,3.795161290322581
827.0,15.141129032258064,3.993548387096774
828.0,14.487903225806452,3.4314516129032255
829.0,44.771007081038555,5.65023603461841
830.0,55.795180959874116,6.458528155558053
831.0,69.46479150275374,6.009348656850623
832.0,42.2162667191188,5.366112172642463
833.0,27.434266232063244,4.774530740699111
834.0,17.573151998801094,4.591435315274811
835.0,10.658723914428084,4.29538046532539
836.0,8.653988235734891,4.045880633921547
837.0,7.788284440448091,3.7147577835225354
838.0,10.437844217151849,4.487332808811958
839.0,11.34543666404406,4.5708890637293464
840.0,9.697580645161292,4.361290322580645
841.0,9.039516129032258,5.576612903225806
842.0,30.3008064516129,11.945967741935483
843.0,29.214889850511405,13.34110936270653
844.0,20.894158143194332,10.170692368214006
845.0,13.9184500393391,8.876475216365066
846.0,12.010837922895359,7.814044059795437
847.0,9.234854445318646,8.586860739575137
848.0,12.01648308418568,9.273446105428796
849.0,11.431451612903226,7.750806451612903
850.0,9.342014162077104,6.272541306058222
851.0,12.573426435877263,10.485464201416207
852.0,10.289535798583792,7.539103068450039
853.0,13.223841513849383,11.33534971453933
854.0,21.907082047247272,10.870094212108373
855.0,20.901220016542595,12.904755996691481
856.0,21.682464846980977,15.04511993382961
857.0,27.882931872743043,16.42155681978656
858.0,25.616817466561763,17.85312745869394
859.0,17.808811959087333,13.793095987411487
860.0,15.727576711250983,12.665381589299763
861.0,16.417584579071594,13.761054287962235
862.0,19.429878048780488,15.021754523996853
863.0,17.851789929189614,14.931353265145555
864.0,14.696302124311565,10.077891424075531
865.0,12.852871754523996,9.584579071597167
866.0,36.90165224232888,8.416207710464201
867.0,124.53186467348544,7.985837922895358
868.0,80.32887490165224,6.797797010228167
869.0,52.39103068450039,12.011014948859167
870.0,115.31943351691581,13.473642800944138
871.0,119.73257479473057,11.089168633621819
872.0,69.73977284189715,11.198950957251508
873.0,43.110012306078396,8.123629687909782
874.0,25.67034840323589,7.4028848675583525
875.0,15.347684036393712,6.663440860215053
876.0,9.619059795436664,6.553068450039339
877.0,7.607100708103855,6.570318646734854
878.0,10.134598741148702,7.706530291109362
879.0,12.500767112509834,10.243587726199841
880.0,11.96852871754524,9.692761605035404
881.0,9.268371361132965,7.747797010228167
882.0,10.133870967741935,8.591129032258063
883.0,10.588257277734067,9.026593233674273
884.0,9.148701809598741,7.406845003933911
885.0,13.731156569630212,7.799783634933123
886.0,10.980797474227844,7.220332264116685
887.0,11.096043898404243,5.8722629062518905
888.0,11.769029030240674,5.8161471887671725
889.0,11.872791462405939,5.920976820190038
890.0,10.379983457402812,7.563399503722084
891.0,10.143823760818254,6.822128245476003
892.0,9.536428009441384,7.011506687647522
893.0,9.419826907946499,9.140027537372148
894.0,10.573859166011015,8.475983477576712
895.0,13.925727773406765,12.222187254130604
896.0,15.024232887490165,10.380959874114868
897.0,12.992761605035405,8.791738788355625
898.0,11.209284028324156,8.95232100708104
899.0,8.847678992918961,7.112352478363494
900.0,10.807317073170733,7.134303697875688
901.0,16.19948859166011,6.766601101494886
902.0,11.914496459480723,7.736093627065303
903.0,11.3794256490952,6.907159716758457
904.0,9.248294296838749,7.787471504367649
905.0,8.687050374225826,5.8643002683128564
906.0,7.8174827008816,4.62144989812181
907.0,7.771133167907362,4.75171629445823
908.0,7.104921422663358,6.134325889164598
909.0,13.483536585365854,7.674901652242329
910.0,17.150236034618413,9.075354051927617
911.0,14.88849331235248,8.57289535798584
912.0,13.177714398111723,9.625157356412274
913.0,15.282808811959088,12.614594807238394
914.0,14.024252557041699,12.417053501180172
915.0,15.70204563335956,16.546026750590087
916.0,12.979032258064516,13.796774193548387
917.0,17.761998426435877,17.19008654602675
918.0,18.110326514555467,17.92732100708104
919.0,25.560529262240514,17.476119147047548
920.0,19.38873237305574,14.706607960620548
921.0,14.921382315560127,14.38959430289092
922.0,15.851092416631362,14.764663398495028
923.0,14.299503722084367,14.902315963606286
924.0,15.724193548387095,17.03709677419355
925.0,17.59169944925256,18.36740755310779
926.0,19.818489378442173,17.216365066876477
927.0,20.814457120377657,16.153697875688433
928.0,24.753599527930763,15.135719905586152
929.0,25.990243902439026,12.609913453973249
930.0,20.723052714398108,13.423288749016521
931.0,15.96018882769473,11.369708890637293
932.0,15.47592446892211,10.757474429583006
933.0,11.308929976396538,10.11825334382376
934.0,8.639516129032257,8.724193548387097
935.0,16.052812745869396,8.37216758457907
936.0,17.508497246262785,7.443941778127458
937.0,14.26392604248623,7.465519276160503
938.0,12.37635626241055,7.878592971413585
939.0,13.3071297441085,10.655100970364543
940.0,12.498411449552282,10.020784159454497
941.0,9.779339477726575,8.400557303960138
942.0,11.471121351766513,8.607133490689746
943.0,12.793548387096774,7.020771046420141
944.0,12.558064516129031,8.058064516129033
945.0,14.484677419354837,7.375
946.0,13.756726986624702,7.0526553894571204
947.0,19.35629425649095,5.7010818253343825
948.0,17.19427616050354,6.942073170731707
949.0,17.58463808025177,6.264181746656176
950.0,15.574980330448467,7.009913453973249
951.0,12.225334382376081,7.189929189614476
952.0,10.283870967741935,6.8
953.0,11.785916601101494,6.315774980330449
954.0,11.897720205312652,6.629700086171368
955.0,12.464182683301487,5.332188752763104
956.0,9.622413922295905,4.186255666704133
957.0,8.049110186954403,5.719740736577872
958.0,6.996466973886328,8.042089093701996
959.0,7.585483870967742,6.193548387096774
960.0,8.537096774193548,4.965322580645161
961.0,11.162672811059908,5.896889400921659
962.0,16.35311059907834,10.612557603686636
963.0,17.973732718894006,15.205875576036867
964.0,18.401382488479264,16.073502304147468
965.0,15.729723502304147,11.602073732718894
966.0,16.960867895545313,12.218087557603686
967.0,12.030365104342287,8.824199168258964
968.0,12.71235997152598,9.994357648645611
969.0,11.025534824472668,8.394759469484097
970.0,9.136154509010527,6.755041025064629
971.0,8.754405979543666,6.889732494099135
972.0,8.371774193548386,6.578225806451613
973.0,7.876612903225807,6.085483870967742
974.0,8.24758064516129,7.147580645161291
975.0,8.842741935483872,6.083870967741936
976.0,9.004032258064516,6.074193548387097
977.0,10.51658143194335,5.919767899291896
978.0,13.626435877261997,8.50544846577498
979.0,13.595124472956888,8.117560874740262
980.0,15.549578365510701,8.49386108253142
981.0,15.45946660211019,8.832414412233451
982.0,17.08614557485525,9.974586435070306
983.0,13.064846980976013,6.553019023986765
984.0,9.348387096774193,4.712903225806452
985.0,9.828225806451613,3.9701612903225802
986.0,12.475806451612904,4.458064516129031
987.0,10.236290322580643,4.271774193548387
988.0,9.560773366418527,3.8415839536807272
989.0,8.55659636062862,4.801033912324234
990.0,7.9149917287014055,4.732775020678247
991.0,8.319995864350702,5.781306865177833
992.0,7.832175351530189,5.092266335814723
993.0,9.94032258064516,5.187903225806451
994.0,9.2551730920535,5.083064516129031
995.0,9.946872541306059,7.854819040125885
996.0,11.989120720611673,9.932279247110088
997.0,10.09496358611229,8.908075107426011
998.0,8.98377211563679,8.434279489196877
999.0,8.496134680949787,7.801010712340373
1000.0,8.774896608767577,7.964392059553349
1001.0,9.183064516129031,7.610483870967741
1002.0,7.6338709677419345,7.834677419354839
1003.0,6.875,7.467741935483871
1004.0,7.837096774193548,7.993548387096774
1005.0,8.545967741935485,7.0129032258064505
1006.0,9.212903225806452,8.393548387096773
1007.0,9.475000000000001,7.705645161290322
1008.0,7.986124896608768,6.728804797353185
1009.0,8.496691480562447,6.698676592224979
1010.0,7.247539288668321,7.12191894127378
1011.0,7.787076095947063,6.101282051282051
1012.0,7.7770057899090155,6.988544251447477
1013.0,7.745161290322581,7.039516129032258
1014.0,7.430645161290323,7.708064516129031
1015.0,8.468548387096774,7.036290322580644
1016.0,9.24758064516129,6.801612903225806
1017.0,8.42016129032258,6.25483870967742
1018.0,8.602419354838709,7.762096774193548
1019.0,8.57258064516129,7.475806451612902
1020.0,8.289516129032258,7.157258064516128
1021.0,9.45483870967742,7.3959677419354835
1022.0,9.726426799007445,7.575062034739454
1023.0,9.509181141439207,7.768176178660049
1024.0,9.817493796526055,7.174007444168734
1025.0,12.069230769230767,8.328535980148883
1026.0,13.290870302003267,8.422489862615748
1027.0,14.83156963021243,9.386939417781274
1028.0,11.950059008654602,9.299921321793864
1029.0,10.948013375295043,9.020928402832414
1030.0,11.555861526357198,9.442722265932337
1031.0,13.158733280881194,10.119944925255703
1032.0,14.537903225806451,11.926612903225806
1033.0,12.683870967741935,9.892741935483869
1034.0,11.946990558615262,10.697875688434303
1035.0,11.737608182533439,10.235228166797796
1036.0,13.977084972462627,13.278225806451612
1037.0,20.499429583005508,13.696774193548386
1038.0,14.863021243115657,13.314516129032258
1039.0,12.531734551836832,11.846186628739737
1040.0,15.627964050111965,12.784786862756963
1041.0,17.30800248138958,15.435194375516955
1042.0,14.430210918114142,14.522435897435898
1043.0,12.54937965260546,12.693879239040529
1044.0,10.419354838709676,11.856451612903225
1045.0,8.675255704169944,11.373701809598742
1046.0,9.632789142407553,10.9316089693155
1047.0,12.85470102281668,13.323465774980331
1048.0,14.7154602675059,14.819118804091266
1049.0,12.371754523996852,11.084225019669551
1050.0,10.62309205350118,9.855409126671912
1051.0,9.872029897718331,10.277301337529504
1052.0,15.194885916601102,10.718489378442172
1053.0,15.37179386309992,11.666561762391817
1054.0,12.648524783634933,11.604327301337529
1055.0,12.006808474766775,11.65876887340302
1056.0,11.155184331797233,10.339730620808512
1057.0,9.239521748904124,10.199251620396389
1058.0,12.497583455097224,13.423416132778838
1059.0,12.735416432505339,11.89030759432018
1060.0,10.830841856805664,11.80936270653029
1061.0,9.675609756097561,11.500275373721479
1062.0,11.267938630999213,12.077596380802516
1063.0,14.399291896144767,13.243233674272226
1064.0,15.546774193548387,12.957258064516129
1065.0,12.531451612903226,9.515322580645162
1066.0,17.347081413210446,7.539823348694316
1067.0,20.717325128320407,7.872360533513169
1068.0,15.82975815818066,9.782964295080738
1069.0,19.161188012092808,12.311085125207864
1070.0,26.020916586691566,12.325703852926512
1071.0,31.769521273376505,10.379979422623009
1072.0,21.35145352942363,7.96789237513077
1073.0,16.27407452238294,7.356487493623607
1074.0,16.04788880146866,7.0906991120602445
1075.0,12.808621820089169,8.471962459255929
1076.0,10.439391555205873,7.159368326402159
1077.0,10.443351691581432,4.920928402832415
1078.0,12.266915814319432,5.007199055861527
1079.0,12.545967741935485,5.537903225806451
1080.0,12.391129032258064,6.8153225806451605
1081.0,11.031451612903226,6.421774193548387
1082.0,10.624193548387098,6.89516129032258
1083.0,13.225248138957816,9.094871794871795
1084.0,14.636414392059553,6.784532671629446
1085.0,11.689578163771712,6.447911497105045
1086.0,15.8052729528536,7.617100909842845
1087.0,15.311910669975187,7.124276261373035
1088.0,13.479032258064517,11.021774193548387
1089.0,10.774940991345396,9.277399685287175
1090.0,23.05118017309205,7.339103068450039
1091.0,20.168931691177953,5.911362948617079
1092.0,23.053122415219185,19.60373418870665
1093.0,23.401157981803145,17.25347999757913
1094.0,15.985000706086463,13.277802154572415
1095.0,13.568153194825108,9.168912598023534
1096.0,14.132732007043574,8.500573226930426
1097.0,9.402085909107939,5.971844441946724
1098.0,9.549833277134613,4.474631898392717
1099.0,8.946513806151886,3.5333820388895134
1100.0,7.523977687667696,3.934687001956868
1101.0,13.071980976013235,4.99102564102564
1102.0,20.259702132381125,8.329364118703221
1103.0,23.310368375395914,10.707030603804798
1104.0,19.275345478020537,12.04383788254756
1105.0,14.839575137686861,9.951612903225806
1106.0,13.211723052714397,9.587096774193547
1107.0,11.025924468922108,8.802596380802518
1108.0,10.283064516129032,6.324193548387097
1109.0,8.383064516129032,7.1322580645161295
1110.0,9.980173092053501,6.273544453186467
1111.0,10.773957513768686,5.50572383949646
1112.0,9.493430369787568,5.525039339103069
1113.0,10.120102281667977,7.818568056648309
1114.0,9.544728560188828,6.08831628638867
1115.0,9.08587675765095,6.91263440860215
1116.0,7.96914805624483,7.13252688172043
1117.0,7.890219189412738,7.243279569892473
1118.0,7.47535153019024,6.77768817204301
1119.0,11.915134459036897,6.891804353527406
1120.0,12.487922895357986,6.638375295043273
1121.0,10.389122738001573,4.905074744295829
1122.0,11.003835562549174,4.850924468922109
1123.0,9.373288749016522,5.315381589299763
1124.0,9.09758064516129,5.849193548387097
1125.0,10.80483870967742,8.562903225806451
1126.0,9.398387096774194,8.228225806451613
1127.0,12.56532258064516,10.616129032258064
1128.0,11.177419354838708,8.156451612903226
1129.0,10.036290322580644,7.394354838709678
1130.0,10.158064516129032,6.175806451612903
1131.0,9.192328874901651,7.129701022816679
1132.0,8.936776513546773,7.713216929936049
1133.0,8.750243095483064,7.480802013355121
1134.0,9.238024773547982,7.014191329258205
1135.0,8.929496257741732,7.682095664629102
1136.0,8.25475599669148,6.25277088502895
1137.0,8.874193548387096,6.5
1138.0,7.691935483870967,5.804838709677419
1139.0,10.386290322580646,8.009677419354839
1140.0,11.208064516129031,6.800806451612903
1141.0,11.75241935483871,9.798387096774194
1142.0,11.413709677419355,10.673387096774192
1143.0,10.245967741935484,8.627915632754343
1144.0,10.16532258064516,7.751054590570719
1145.0,8.374193548387098,7.229156327543423
1146.0,9.290892997639652,8.67415723536888
1147.0,10.094689221085758,9.377440537432669
1148.0,10.179602675059009,8.015519276160504
1149.0,11.003107789142408,6.979130605822187
1150.0,12.92816679779701,7.5625491738788355
1151.0,14.414594807238394,7.126514555468135
1152.0,11.341129032258063,5.709677419354838
1153.0,9.454032258064515,5.457258064516129
1154.0,8.356451612903225,4.567741935483871
1155.0,8.650845790715971,19.96597167584579
1156.0,8.23859166011015,23.31784028324154
1157.0,10.113650668764752,19.715774980330448
1158.0,8.797788940668564,13.37287921886663
1159.0,9.440829954205249,10.561439609433315
1160.0,8.48296415098146,7.962781173717444
1161.0,8.089239746615828,7.52663055538744
1162.0,8.498248905565978,6.9711240896528075
1163.0,8.307749803304485,6.419492525570417
1164.0,7.966778127458694,6.55773013375295
1165.0,7.241856805664831,6.2099134539732495
1166.0,6.774036191974822,6.645554681353264
1167.0,7.76113296616837,6.575727773406766
1168.0,7.866404405979543,5.647423288749016
1169.0,8.234815106215578,6.663630999213217
1170.0,7.63756884343037,7.585444531864674
1171.0,7.974429583005507,8.310464201416208
1172.0,7.820180959874115,8.334067663257278
1173.0,8.056058726220016,7.120926385442514
1174.0,6.999400330851945,7.8757857733664185
1175.0,6.8186517783291976,8.150392886683209
1176.0,7.263358147229114,7.607857733664185
1177.0,8.991356492969395,9.102315963606287
1178.0,9.145731707317072,9.328206136900079
1179.0,10.606294256490951,8.818076317859951
1180.0,12.97653422501967,8.827989771833202
1181.0,11.073347757671126,8.492623918174665
1182.0,13.055625491738788,13.457199055861526
1183.0,12.094453186467348,11.544099134539731
1184.0,10.462096774193547,9.30241935483871
1185.0,9.323387096774194,8.831451612903226
1186.0,11.186428009441386,11.3845987411487
1187.0,10.320633359559402,11.81205743509048
1188.0,10.246203776553894,11.505625491738787
1189.0,9.34639593294196,11.170141116423572
1190.0,9.582875385825819,11.049989913050496
1191.0,9.641004962779157,8.541832092638543
1192.0,17.284615384615385,9.373738626964434
1193.0,17.329404466501238,11.294127377998347
1194.0,22.347580645161287,14.725806451612904
1195.0,18.02073732718894,13.049654377880184
1196.0,16.284562211981566,11.584907834101383
1197.0,17.591244239631337,10.55453149001536
1198.0,16.944815668202764,11.723233486943165
1199.0,20.272811059907834,15.159600614439324
1200.0,18.981240867708216,15.377737814244501
1201.0,17.340187703720357,15.496107302086845
1202.0,18.823544453186468,16.821439811172304
1203.0,18.025885129819038,17.49297797010228
1204.0,15.533910306845002,12.975924468922107
1205.0,15.909520062942565,13.128874901652242
1206.0,18.657041699449252,10.728324154209282
1207.0,18.871007081038552,8.487293469708892
1208.0,17.27421321793863,7.733969315499607
1209.0,14.214929189614477,7.2480330448465775
1210.0,11.708674272226594,6.750629425649095
1211.0,13.770062942564909,12.811605035405194
1212.0,12.821774193548386,12.028225806451612
1213.0,12.776612903225807,11.754032258064516
1214.0,15.704032258064515,11.483064516129032
1215.0,17.648387096774194,10.708064516129031
1216.0,11.40483870967742,9.932258064516128
1217.0,14.707258064516129,12.864516129032259
1218.0,13.546774193548387,12.416935483870967
1219.0,10.883560794044666,11.694023986765922
1220.0,11.414764267990076,10.656286186931348
1221.0,10.715446650124068,10.711207609594705
1222.0,8.70893300248139,9.23221670802316
1223.0,8.412531017369727,9.171753515301901
1224.0,10.262096774193548,10.073387096774193
1225.0,13.97322974036192,11.200885129819039
1226.0,14.128678206136899,9.657199055861525
1227.0,17.660306845003934,11.512470495672698
1228.0,16.74870180959874,14.111073957513769
1229.0,17.34209284028324,15.70432730133753
1230.0,16.040204563335955,17.2933910306845
1231.0,16.811290322580646,15.740322580645163
1232.0,13.84102564102564,13.797870140612076
1233.0,13.517050979442796,14.02266638423208
1234.0,17.788364199398817,18.68391383727733
1235.0,17.003456293247794,15.143973047670922
1236.0,17.781163630494866,14.623599427061267
1237.0,14.439299763965382,14.75861526357199
1238.0,15.816705069124424,16.340399385560676
1239.0,16.21278801843318,19.26778033794163
1240.0,17.045506912442395,16.178648233486943
1241.0,18.559132291783747,17.555059757970852
1242.0,16.765050016859615,19.18398149188865
1243.0,15.962411487018095,18.431412273800156
1244.0,29.400649095200627,19.06652242328875
1245.0,30.374114870180957,18.81955153422502
1246.0,26.94150275373721,20.900413060582217
1247.0,23.59351812624826,20.321019185377956
1248.0,24.19644435029958,16.920462385765298
1249.0,34.90428039702233,17.418610421836227
1250.0,22.540446650124068,15.857692307692307
1251.0,17.537965260545903,12.244168734491314
1252.0,17.47741935483871,15.248387096774193
1253.0,18.820967741935483,17.223387096774193
1254.0,15.502419354838707,13.728225806451611
1255.0,14.47983870967742,10.734677419354838
1256.0,14.33548387096774,10.601612903225806
1257.0,15.28548387096774,11.573387096774194
1258.0,12.166935483870967,9.673387096774194
1259.0,13.448446105428795,6.770023603461841
1260.0,10.54720692368214,4.611624704956727
1261.0,11.045377655389457,6.9892800944138465
1262.0,13.053737214791502,10.566817466561762
1263.0,10.762352478363493,9.56526357199056
1264.0,12.992162944582299,12.432402812241522
1265.0,14.705355665839535,13.619023986765923
1266.0,16.003887510339123,16.07725392886683
1267.0,14.222911497105045,13.617659222497933
1268.0,12.071133167907362,10.503184449958644
1269.0,15.73524783634933,13.935739575137688
1270.0,15.827439024390245,9.555035405192761
1271.0,23.314929189614478,9.915420928402833
1272.0,20.10375688434304,11.624409913453974
1273.0,13.789378442171518,9.718253343823761
1274.0,12.18579858379229,7.097915027537372
1275.0,9.826573564122738,6.897501966955153
1276.0,12.429661683713611,10.90763178599528
1277.0,16.80908733280881,7.497875688434304
1278.0,11.753737214791503,5.029583005507474
1279.0,10.179228953579859,6.190952006294257
1280.0,11.610070810385523,5.852596380802518
1281.0,9.361290322580645,4.907258064516128
1282.0,11.957179386309992,9.28156963021243
1283.0,11.509775767112508,8.52444925255704
1284.0,14.556904012588513,11.538434303697874
1285.0,11.728855232100708,10.38937844217152
1286.0,12.429346970889064,10.144689221085759
1287.0,13.757317073170732,15.347088906372933
1288.0,13.386290322580646,14.454032258064515
1289.0,14.607258064516127,14.47983870967742
1290.0,12.925806451612903,10.021774193548385
1291.0,9.931451612903226,7.189516129032258
1292.0,8.811910669975187,6.2578370554177
1293.0,8.85514888337469,7.868031430934655
1294.0,12.377977667493797,10.848531844499586
1295.0,9.647456575682384,9.810153019023986
1296.0,10.96380125251093,10.5586671393123
1297.0,14.967012288786481,14.953609831029185
1298.0,15.944393241167436,16.883256528417817
1299.0,14.167357910906297,15.327918586789554
1300.0,13.137711213517665,13.575652841781872
1301.0,10.773387096774194,11.150806451612903
1302.0,12.957258064516129,11.295967741935485
1303.0,10.183870967741935,9.181451612903226
1304.0,8.339575137686861,9.001121164437452
1305.0,10.299626278520849,11.769512195121951
1306.0,15.14134539732494,16.607336742722268
1307.0,16.677970102281666,12.861231313926043
1308.0,15.136214166111884,15.53500978434102
1309.0,13.918225100365145,16.24586838548286
1310.0,16.170961185418307,16.544956525247635
1311.0,14.264621033307108,11.860578183945611
1312.0,12.943246787306581,10.788432286307973
1313.0,15.777909580584637,10.43499364522181
1314.0,21.35827028989893,12.350069599951581
1315.0,17.019236821400472,11.380566483084184
1316.0,15.609854445318646,12.444964594807239
1317.0,14.24645948072384,11.717643587726199
1318.0,12.735326514555467,11.26648308418568
1319.0,14.946892210857591,15.092250196695515
1320.0,16.64677419354839,17.091129032258063
1321.0,15.475806451612902,16.85967741935484
1322.0,15.969354838709679,17.50483870967742
1323.0,13.464516129032258,11.623387096774193
1324.0,15.09911487018096,12.24372541306058
1325.0,16.740283241542095,14.721459480723839
1326.0,14.926593233674273,12.926455546813532
1327.0,14.141522423288748,12.328953579858378
1328.0,13.27612116443745,11.494964594807238
1329.0,11.70973642800944,11.214437450826122
1330.0,12.203658536585365,10.296734854445319
1331.0,11.128442171518488,10.39836742722266
1332.0,8.392446892210858,10.064909520062944
1333.0,10.151612903225807,10.966129032258063
1334.0,10.61209677419355,10.660483870967742
1335.0,11.898387096774194,12.955645161290322
1336.0,12.608457907159716,10.462273800157357
1337.0,19.502537372147916,12.575826121164438
1338.0,13.54948859166011,13.058634933123525
1339.0,10.82625885129819,10.755369787568842
1340.0,10.800629425649095,14.59260424862313
1341.0,8.548229740361919,12.088591660110149
1342.0,13.866561762391818,11.663493312352479
1343.0,12.00763178599528,12.537883556254915
1344.0,12.707199055861526,10.915283241542092
1345.0,15.116443745082613,13.042486231313926
1346.0,16.098347757671124,10.65129819040126
1347.0,17.620298977183317,9.98143194335169
1348.0,15.949016522423287,9.709047993705743
1349.0,13.601966955153422,9.425727773406766
1350.0,10.310818253343824,8.142446892210858
1351.0,11.801376868607395,9.047029897718332
1352.0,10.94665617623918,9.288434303697876
1353.0,9.731513647642679,9.055764691641954
1354.0,11.199352417841796,10.083586515765901
1355.0,16.861910669975188,18.23014888337469
1356.0,13.118052109181143,15.357854779628973
1357.0,18.03767576509512,16.445066761195793
1358.0,15.072187758478082,14.673401866950254
1359.0,18.32601323407775,17.506862223797707
1360.0,18.678329197684036,13.550608531253692
1361.0,21.36658395368073,14.16232423490488
1362.0,17.429032258064517,13.099193548387095
1363.0,25.89731182795699,13.913440860215054
1364.0,21.508333333333333,11.510752688172042
1365.0,19.64569892473118,13.463440860215053
1366.0,18.31962365591398,12.98494623655914
1367.0,19.402150537634405,15.069892473118278
1368.0,15.80322580645161,13.543548387096774
1369.0,15.571774193548386,17.148387096774194
1370.0,17.988709677419354,17.96693548387097
1371.0,14.356589299763964,13.765696302124312
1372.0,13.120357985837924,11.027222659323368
1373.0,15.217033831628639,14.505546813532652
1374.0,16.50851691581432,17.94309598741149
1375.0,14.976003147128246,17.89771833202203
1376.0,19.635916601101496,18.37293469708891
1377.0,18.232592446892212,18.678599527930764
1378.0,16.16579464988198,15.749291896144769
1379.0,12.719118804091266,14.957513768686074
1380.0,12.797324940991345,13.29362706530291
1381.0,13.561919748229741,14.850668764752164
1382.0,17.728245476003146,14.035483870967742
1383.0,30.167013657729626,13.994562125522
1384.0,21.916315640823903,13.865101676451008
1385.0,23.759191732736184,14.311717504892169
1386.0,17.682418447013255,15.561100687929956
1387.0,24.400375234521576,14.725868990699833
1388.0,26.133769089551937,17.060949383687387
1389.0,16.637694930299176,11.68232362968791
1390.0,12.9058615263572,9.888473642800944
1391.0,10.522285601888276,7.3442368214004725
1392.0,9.1639653815893,7.732199055861527
1393.0,8.306176239181747,7.917309205350117
1394.0,13.854032258064516,12.31774193548387
1395.0,14.487096774193548,10.424999999999999
1396.0,15.949193548387095,12.793548387096774
1397.0,13.715932336742721,11.512313139260424
1398.0,15.715519276160503,16.37045633359559
1399.0,16.47993705743509,17.507808811959087
1400.0,14.324728661058323,15.392252214085415
1401.0,13.195832072464647,13.817900300591095
1402.0,12.594847586192984,10.89974480017753
1403.0,13.972482801751093,11.357818898908592
1404.0,19.069128891040773,12.743592769674594
1405.0,17.453009441384737,13.656825334382376
1406.0,12.980940204563336,10.255428796223445
1407.0,12.877970102281667,11.965617623918174
1408.0,10.69358772619984,9.400590086546027
1409.0,8.792741935483871,7.554032258064517
1410.0,10.69758064516129,10.316935483870967
1411.0,36.65578284815106,9.816207710464202
1412.0,51.14191581431943,8.693509047993706
1413.0,38.88829661683714,9.627399685287175
1414.0,26.059874114870176,8.3044256490952
1415.0,34.05090479937057,7.837293469708889
1416.0,36.86856805664831,9.408261211644374
1417.0,49.93113690007867,9.211605035405192
1418.0,36.98371361132966,11.043705743509047
1419.0,30.087824547600313,12.919433516915815
1420.0,24.50963808025177,16.75084579071597
1421.0,22.79110936270653,14.09598741148702
1422.0,16.379032258064516,12.903225806451612
1423.0,13.45241935483871,11.264516129032257
1424.0,14.69274193548387,10.339516129032257
1425.0,19.33951612903226,15.43790322580645
1426.0,18.61048387096774,13.134677419354837
1427.0,15.917741935483871,15.063709677419354
1428.0,19.07258064516129,13.38790322580645
1429.0,19.610975609756096,15.162647521636506
1430.0,23.003815892997636,17.06931549960661
1431.0,17.286027053198573,13.335670983881055
1432.0,17.411158687889607,16.822270975811495
1433.0,16.701143860073834,17.358716133067034
1434.0,14.95663015190946,16.03569166212754
1435.0,13.889408703020033,14.559151889285642
1436.0,15.374232887490166,16.130527143981116
1437.0,12.000019669551534,11.197521636506687
1438.0,11.5455743509048,10.371341463414634
1439.0,14.73044846577498,14.857041699449251
1440.0,15.835483870967742,13.511290322580644
1441.0,14.564516129032258,10.048387096774192
1442.0,10.70125885129819,7.131707317073171
1443.0,13.233693941778128,7.446498819826909
1444.0,18.415125885129818,9.468646734854445
1445.0,16.250118017309205,13.42503933910307
1446.0,16.54464988198269,15.916325727773405
1447.0,25.432435090479935,17.70796616837136
1448.0,19.393233674272224,15.695515342250197
1449.0,19.78347757671125,19.181117230527143
1450.0,16.59221085759245,16.73217938630999
1451.0,15.458497246262787,16.978206136900077
1452.0,12.505645161290323,13.562903225806451
1453.0,14.049193548387098,16.021774193548385
1454.0,16.568548387096776,16.91532258064516
1455.0,12.583870967741936,12.587096774193547
1456.0,13.272895357985838,14.562922895357985
1457.0,11.657415420928404,11.75847757671125
1458.0,9.113788355625491,10.4352871754524
1459.0,10.48068450039339,13.766837136113296
1460.0,14.11162016582945,16.394770925376747
1461.0,10.288461538461538,13.659305210918113
1462.0,8.96923076923077,11.678039702233251
1463.0,9.182943472734975,10.345156751195304
1464.0,8.613865520789203,8.94986987835139
1465.0,8.541424075531078,8.534736428009442
1466.0,8.67877655389457,9.636723052714398
1467.0,11.892210857592445,12.79134539732494
1468.0,13.963571990558615,13.592053501180173
1469.0,15.688709677419354,14.501612903225805
1470.0,12.0,10.88225806451613
1471.0,12.852419354838709,10.05483870967742
1472.0,13.863709677419354,10.19274193548387
1473.0,11.528225806451612,11.305645161290322
1474.0,14.481451612903227,12.698387096774194
1475.0,13.403225806451612,12.437903225806451
1476.0,11.412096774193548,8.90806451612903
1477.0,13.485011801730922,12.593095987411488
1478.0,14.823780487804878,12.603599527930763
1479.0,10.550196695515343,7.82881589299764
1480.0,10.897678992918962,6.030133752950432
1481.0,11.726569024995461,6.023131392604249
1482.0,28.88885492949222,16.322344610542878
1483.0,21.864569085517157,13.05456333595594
1484.0,18.618978091145674,14.136959087332809
1485.0,19.714573624644434,13.529740361919748
1486.0,13.978874901652242,11.10680566483084
1487.0,11.410444531864673,12.948682140047207
1488.0,15.258851298190402,18.805389457120377
1489.0,16.173304888135732,16.891880005648694
1490.0,13.11064929693962,12.680479735318443
1491.0,15.572092941152736,10.56974419496056
1492.0,17.044514212511853,9.156646291028668
1493.0,17.751692590126893,13.20735540357885
1494.0,15.620594020456334,12.82667191188041
1495.0,15.449409913453973,12.855271439811172
1496.0,16.52258064516129,16.600806451612904
1497.0,15.444512195121952,17.172560975609755
1498.0,15.192014162077104,14.910877261998426
1499.0,17.497816679779703,15.901730920535012
1500.0,17.304956726986624,13.293607395751376
1501.0,13.504091266719119,11.266561762391817
1502.0,11.731274586939417,9.145554681353264
1503.0,12.822895357985837,12.301809598741148
1504.0,13.669354838709676,14.370967741935484
1505.0,10.030645161290323,11.528225806451612
1506.0,33.46852871754524,8.870102281667977
1507.0,34.2330448465775,10.824763965381589
1508.0,27.007651455546814,13.203107789142406
1509.0,21.13495279307632,13.373210070810384
1510.0,15.645476003147127,12.034067663257277
1511.0,12.864044059795436,11.014991944850324
1512.0,11.14209284028324,11.560603761567569
1513.0,11.045633359559401,9.909894721067026
1514.0,15.61243115656963,13.109235322767976
1515.0,15.788906372934697,14.263508298677458
1516.0,17.88961447678993,15.630448465774979
1517.0,16.903257652392192,12.953042223970627
1518.0,15.194351092128432,13.653547075793337
1519.0,11.189219212468622,10.480107526881719
1520.0,17.211053351316924,10.710912566321692
1521.0,12.05512344985201,9.730053057354393
1522.0,11.928560188827696,9.446746958784724
1523.0,9.10275373721479,10.507716516371119
1524.0,13.190322580645162,12.615384615384613
1525.0,15.514516129032257,13.782848151062156
1526.0,13.870830055074743,12.046026750590086
1527.0,12.3301730920535,9.848819826907945
1528.0,14.524763965381588,13.44618410700236
1529.0,17.504720692368213,13.753737214791501
1530.0,17.984618410700236,14.728009441384735
1531.0,14.991129032258064,12.447797010228165
1532.0,12.391935483870967,10.2029307631786
1533.0,10.752852084972462,10.582238394964595
1534.0,9.190063346042889,7.618280074239949
1535.0,9.923257479473058,6.149865843571588
1536.0,13.658402933284917,12.53669531360326
1537.0,12.361056305352136,8.849799269704855
1538.0,9.894532873368437,6.762822530210413
1539.0,18.159756097560976,9.52094807238395
1540.0,17.27543273013375,12.056294256490952
1541.0,16.359893784421715,13.482179386309992
1542.0,11.989221085759244,10.34673485444532
1543.0,9.411211644374507,7.990047206923682
1544.0,9.550668764752164,8.68501180173092
1545.0,13.413808025177024,7.120633359559401
1546.0,10.405291109362706,7.511526357199055
1547.0,15.000629425649096,11.937214791502754
1548.0,12.215578284815106,8.639417781274586
1549.0,12.74335169158143,8.876750590086546
1550.0,13.461290322580645,11.737903225806452
1551.0,17.28231707317073,14.726101494885917
1552.0,14.511392200770644,13.270856785490931
1553.0,11.672631584256289,10.936234844358369
1554.0,13.701235146966855,13.101585164114667
1555.0,12.80102079928988,9.222970001412172
1556.0,10.11852770885029,6.266087675765095
1557.0,11.369354838709677,6.966129032258064
1558.0,11.735483870967741,6.055645161290322
1559.0,12.753009441384737,8.87751770259638
1560.0,15.189811172305271,12.180291109362706
1561.0,13.339260424862314,10.803855232100709
1562.0,15.79543666404406,8.656766325727773
1563.0,13.447759688515,11.64155520587464
1564.0,15.929623353305495,12.151226068712301
1565.0,20.96077941858823,17.10827432467873
1566.0,21.588818112126532,16.889601363755574
1567.0,22.008777663459018,16.093679517440336
1568.0,17.710818253343824,14.840047206923682
1569.0,13.889791502753736,11.203343823760818
1570.0,10.38804091266719,9.765381589299764
1571.0,8.092761605035404,10.346577498033044
1572.0,8.164240755310779,8.45354051927616
1573.0,8.873387096774193,8.187903225806451
1574.0,7.754032258064516,8.433870967741935
1575.0,7.588709677419355,8.320967741935483
1576.0,12.761866359447005,9.14274193548387
1577.0,12.623389906710127,12.052163650668763
1578.0,24.01834326177363,9.09291896144768
1579.0,35.470193136263156,10.9691553332584
1580.0,23.357273987486415,10.087400247274362
1581.0,18.281143456595856,11.365493986737102
1582.0,14.308864411224757,9.071338653478701
1583.0,11.976855494361395,6.6163931662358095
1584.0,16.735739575137686,13.412804878048782
1585.0,14.709284028324152,13.40656963021243
1586.0,10.662037765538944,9.97165617623918
1587.0,11.87295436664044,11.169295830055074
1588.0,10.181235247836348,10.961664044059795
1589.0,12.770456333595593,12.061880409126672
1590.0,12.87854051927616,13.646990558615261
1591.0,16.34209284028324,12.689221085759243
1592.0,18.623839496459482,13.789063729346969
1593.0,16.022167584579073,14.755841856805663
1594.0,20.185680566483086,13.239614476789928
1595.0,14.674292400492241,11.020279307631785
1596.0,10.404888135729992,8.62667191188041
1597.0,9.55311283261716,6.126160503540519
1598.0,10.433519437551695,10.308870967741935
1599.0,11.91232423490488,13.493548387096773
1600.0,28.037765538945713,12.153147128245475
1601.0,29.34675452399685,15.301435877261998
1602.0,25.17216758457907,18.489830841856804
1603.0,21.563906372934696,18.197738001573562
1604.0,17.825098347757667,15.74846577498033
1605.0,14.514594807238392,15.197521636506687
1606.0,15.523387096774192,16.145967741935483
1607.0,13.156805664830841,13.44744295830055
1608.0,13.556628638867032,15.4301730920535
1609.0,15.712588512981903,18.66024783634933
1610.0,14.567708648550504,14.574757913211887
1611.0,12.30078980814622,11.75955637596078
1612.0,16.04221237063487,9.528086606548447
1613.0,19.94200508382255,13.357896568419779
1614.0,19.37786721539672,14.034327906554498
1615.0,18.297600314712824,14.487175452399685
1616.0,17.177025963808024,15.030684500393392
1617.0,17.702596380802518,17.214791502753737
1618.0,18.85719905586153,17.708497246262787
1619.0,14.648269079464988,12.497364280094413
1620.0,12.436250983477578,9.710916601101495
1621.0,12.2588512981904,8.659087332808813
1622.0,10.807238394964594,9.309874114870182
1623.0,14.808103855232101,12.658634933123524
1624.0,12.250826121164437,9.588591660110149
1625.0,15.813847364280095,15.517348544453185
1626.0,19.03981117230527,21.768961447678993
1627.0,17.672934697088905,16.849862313139262
1628.0,13.283469002804171,13.075499808347958
1629.0,11.426815146563376,11.025653129980432
1630.0,11.173124331739594,10.090245919828925
1631.0,10.53573604470536,9.661409348584801
1632.0,9.40822994210091,7.348800661703887
1633.0,18.16382769472856,8.354956726986625
1634.0,22.3845987411487,12.883654602675058
1635.0,16.213049990921746,12.256767334422722
1636.0,15.011766930944741,14.292899796243619
1637.0,13.652254433214306,14.003707962637938
1638.0,11.575065060824304,11.999178922310314
1639.0,9.609326393512074,11.790698823861687
1640.0,8.745987411487018,10.580586152635721
1641.0,17.915466824023078,8.753714735304035
1642.0,14.529104379753475,10.598631561200403
1643.0,17.231890899554156,16.673912554793752
1644.0,16.199501704694466,18.366696639316622
1645.0,12.397311827956987,13.947235023041474
1646.0,10.46532258064516,10.844354838709677
1647.0,10.587903225806452,7.737096774193548
1648.0,11.71290322580645,7.198387096774193
1649.0,16.982749803304486,8.063473642800943
1650.0,14.856294256490951,9.039398111723052
1651.0,15.732985837922895,8.911231313926042
1652.0,11.125767112509834,8.596341463414635
1653.0,9.365302911093627,7.769944925255705
1654.0,13.101612903225806,8.871597167584579
1655.0,15.172128245476003,10.745003933910308
1656.0,13.386467348544453,10.650727773406766
1657.0,10.45064909520063,8.869354838709677
1658.0,9.267663257277732,8.696774193548386
1659.0,8.51447678992919,8.071754523996852
1660.0,9.142761605035405,8.37812745869394
1661.0,10.940479937057436,8.740401258851298
1662.0,10.82043666404406,13.145653029110935
1663.0,14.363847364280094,16.397423288749017
1664.0,14.148859166011015,14.412824547600316
1665.0,15.093784421715185,12.522462627852084
1666.0,12.116129032258065,9.378225806451614
1667.0,13.835483870967742,13.043548387096774
1668.0,13.280605822187255,11.422128245476003
1669.0,14.328206136900079,14.093725413060582
1670.0,14.237490165224232,12.734362706530291
1671.0,13.627616050354051,11.774842643587725
1672.0,10.746066089693155,11.643469708890638
1673.0,12.252655389457122,14.382710464201416
1674.0,8.914480536510434,10.990798396463227
1675.0,7.7894983327713465,9.363947585328388
1676.0,7.59636206961148,8.083989921696451
1677.0,6.828826196096062,8.847236896332097
1678.0,6.89615975422427,7.570353302611368
1679.0,7.262903225806451,7.464516129032258
1680.0,6.036290322580646,6.134677419354839
1681.0,9.286136712749617,11.189132104454684
1682.0,12.247503840245775,10.161098310291859
1683.0,8.808026113671275,8.147887864823348
1684.0,8.926996927803378,7.593701996927804
1685.0,8.236954404106253,7.330721966205838
1686.0,6.348367427222659,6.857317073170732
1687.0,5.914103068450039,7.1778520849724625
1688.0,5.639024390243902,7.027104642014161
1689.0,16.370653029110937,7.856176239181746
1690.0,25.990991345397326,7.503619197482298
1691.0,20.37197088906373,7.949291896144768
1692.0,24.67648619471941,11.258723217389713
1693.0,19.956766195033076,10.569509973312144
1694.0,16.9850894779444,15.49265277991972
1695.0,14.977517201600051,12.314933785711236
1696.0,11.41070982031222,9.764862644232487
1697.0,10.294777265745008,10.457450076804916
1698.0,11.125960061443934,13.857987711213516
1699.0,16.995161290322578,17.831451612903223
1700.0,14.380645161290321,15.891935483870968
1701.0,13.07779307631786,11.013926042486231
1702.0,15.570849724626278,13.910877261998426
1703.0,11.971549758921906,10.121702071859428
1704.0,8.550291008493211,8.503592971413585
1705.0,7.490871310698218,6.855022292158406
1706.0,6.880762169904578,8.501862050878572
1707.0,5.500363850678563,7.44807613053089
1708.0,5.542324191675096,6.906833764190176
1709.0,6.421565321644,7.012287849837023
1710.0,5.852718144692968,8.204934247499157
1711.0,5.98379416282642,8.895622119815668
1712.0,15.770161290322578,9.178225806451612
1713.0,16.555153422501967,9.572049567269866
1714.0,11.441747218163425,10.680322018657975
1715.0,8.580698550073057,11.019045745756996
1716.0,7.149859503203326,11.963653478700685
1717.0,7.199123299988759,10.940294481285825
1718.0,6.963242291409089,11.160679629837773
1719.0,6.914570454460304,12.502229215840545
1720.0,7.4439099321868785,12.28769997377393
1721.0,21.19048368363868,19.696564384998688
1722.0,16.77358285564422,20.158650856093814
1723.0,13.618742272676183,16.39729777827732
1724.0,14.818478138698437,18.890712225094596
1725.0,24.03709115432168,17.786032745120075
1726.0,23.252613240418114,18.621969952418418
1727.0,16.653534899404292,14.258382975534822
1728.0,11.457907159716758,11.49567269866247
1729.0,17.552635719905584,11.239024390243902
1730.0,21.2720692368214,15.03021243115657
1731.0,16.46136900078678,13.700865460267504
1732.0,13.930123666000927,12.76004357562186
1733.0,11.507154673283704,11.798511166253103
1734.0,12.743899917287013,18.297642679900743
1735.0,11.126385442514476,15.80784966410458
1736.0,9.05807863785834,13.352941354475579
1737.0,9.758890637293469,13.561388670338316
1738.0,9.676219512195122,13.484323367427223
1739.0,9.240125885129817,13.755468135326513
1740.0,8.523288749016523,13.073092053501181
1741.0,11.681864673485444,17.534107002360344
1742.0,9.989634146341462,15.255645161290323
1743.0,12.017032894983327,11.738556067588327
1744.0,9.841728485257203,8.294002660072683
1745.0,8.69062230714473,7.3401464913266645
1746.0,7.593698250346559,7.553137761792364
1747.0,10.90062567906785,14.895923719605857
1748.0,12.7228166797797,18.38375295043273
1749.0,17.914516129032258,16.115322580645163
1750.0,18.667112509834773,16.776160503540517
1751.0,30.115007867820612,11.868725413060583
1752.0,30.794427897043946,9.475875763365927
1753.0,22.476865797459816,11.907312389944174
1754.0,14.474127983215315,8.438237608182533
1755.0,11.801580120639915,8.173092053501179
1756.0,10.602806189352215,12.218804091266719
1757.0,12.126671911880408,12.525300663144879
1758.0,8.931549960660895,10.40859840395639
1759.0,8.444522498220373,11.98055337004983
1760.0,7.399051178299801,9.058097298714923
1761.0,6.528252969165637,7.594754786257541
1762.0,8.467505900865461,9.347915027537372
1763.0,8.179989509572515,9.71063654415346
1764.0,8.909428271702073,11.212123936907572
1765.0,13.085173192922998,17.734349809644854
1766.0,12.848959531158588,16.595577737237846
1767.0,9.803108797837359,11.343756610554408
1768.0,7.665532893542334,9.355365248441567
1769.0,6.095158264237729,7.317336440113781
1770.0,7.358343636431756,6.066088756509685
1771.0,6.727008167547114,6.401189539545165
1772.0,7.09049953455933,5.759837945951243
1773.0,6.564604605989343,7.0565318762014275
1774.0,7.103545418651634,5.684520855488597
1775.0,7.71820896124594,5.2454094292803966
1776.0,8.440536423974661,5.065269624160261
1777.0,6.945338316286388,7.4345594020456325
1778.0,6.545998651230752,8.6828518976434
1779.0,9.783483196583116,15.651909819789442
1780.0,12.459297429557067,17.32960462039927
1781.0,9.386533057815512,14.18494393097068
1782.0,10.797908543069834,12.536689117334278
1783.0,9.545037220843671,10.715425971877584
1784.0,7.545905707196029,9.621422663358146
1785.0,10.51290322580645,12.653225806451612
1786.0,11.384539732494098,12.294807238394965
1787.0,13.330979543666404,13.71433910306845
1788.0,12.777989771833202,13.861605035405193
1789.0,14.61685680566483,17.020908733280883
1790.0,11.63473642800944,14.273328088119591
1791.0,13.89299295642726,18.385549436139524
1792.0,11.887606309242816,15.476184856318609
1793.0,9.152635719905586,11.914090892060994
1794.0,7.142092840283242,8.966250796148515
1795.0,6.267741935483871,7.8047619047619055
1796.0,6.085493237420853,7.296230939267918
1797.0,6.932301150200442,8.218391967329811
1798.0,11.888193585852909,15.215954816230187
1799.0,11.306616462477988,14.72975160166348
1800.0,10.764598553819638,13.951972575025287
1801.0,9.59166198344011,11.194239631336405
1802.0,10.075669701397475,12.93179723502304
1803.0,8.642289535798584,12.21774193548387
1804.0,7.505645161290322,10.024999999999999
1805.0,6.416129032258064,8.106451612903225
1806.0,6.637135176651306,8.05906298003072
1807.0,5.402959799183245,8.13869750103031
1808.0,9.083737964107751,12.446364879547414
1809.0,9.26283672398936,13.603424375257578
1810.0,11.485047394252744,15.898486381177175
1811.0,12.276317859952792,17.974665617623916
1812.0,11.782926829268291,15.687175452399686
1813.0,9.011605035405193,12.170653029110937
1814.0,11.895515342250196,16.387234461054287
1815.0,12.092112509834774,15.583536585365852
1816.0,10.122265932336742,12.919590873328087
1817.0,11.347049567269867,14.32360346184107
1818.0,11.995476003147129,13.198859166011015
1819.0,9.504032258064516,11.625
1820.0,8.114516129032257,9.508064516129032
1821.0,6.718036978756885,9.745161290322581
1822.0,6.4803697875688435,8.51001180173092
1823.0,6.02285601888277,7.762883556254918
1824.0,6.110373418870665,8.24015765902076
1825.0,6.909277976154451,8.516371119046177
1826.0,7.238273921200751,8.139905989630616
1827.0,6.440012911295366,7.573587178622583
1828.0,6.2493534265367465,7.20662049725779
1829.0,6.146131654864936,8.245505975797084
1830.0,7.6068974560713345,10.024011839196731
1831.0,8.440938893259899,8.901397474804241
1832.0,7.490204563335956,7.824429583005507
1833.0,6.454760031471283,9.063729346970888
1834.0,8.530291109362707,19.136113296616838
1835.0,9.990558615263572,30.05019669551534
1836.0,10.02077104642014,24.20283241542093
1837.0,8.002124311565696,16.560188827694727
1838.0,6.868174665617623,12.567269866247049
1839.0,6.891129032258064,10.661290322580644
1840.0,9.518587726199842,10.047383949645948
1841.0,22.511054287962235,10.699921321793862
1842.0,21.932946498819827,9.516896144767898
1843.0,16.719295830055074,8.464496459480724
1844.0,23.01266719118804,15.687647521636507
1845.0,22.867073170731707,21.636900078678206
1846.0,29.16485051140834,22.414830841856805
1847.0,24.618666404405978,16.662037765538944
1848.0,19.223446105428796,13.96569630212431
1849.0,18.956726986624705,12.000786782061368
1850.0,14.341463414634145,12.475216365066878
1851.0,13.255875648086505,13.876011216687848
1852.0,19.421014141903207,18.48324557687264
1853.0,15.759700619338698,16.6617840787589
1854.0,11.121785793540317,12.898230749056868
1855.0,8.881506586778027,9.897659827714902
1856.0,8.484650256640816,8.581879659810422
1857.0,6.890476190476191,8.337596006144393
1858.0,6.952496159754224,8.099039938556068
1859.0,5.719412910718969,7.527027837098647
1860.0,5.394423213817391,7.350020606196845
1861.0,5.299822974036192,7.050432730133753
1862.0,5.46229346970889,7.91917781274587
1863.0,5.4352478363493315,7.845082612116444
1864.0,6.822247199430519,8.1840526769323
1865.0,8.416069086958151,8.547797946873478
1866.0,7.735453898317784,7.7517215540819
1867.0,7.12539807425724,7.875860777040949
1868.0,6.080401633509423,7.198748641864298
1869.0,5.94346408901877,7.151095875014049
1870.0,6.128874901652242,7.97462627852085
1871.0,6.951534225019669,6.778442171518489
1872.0,10.98402832415421,11.427537372147915
1873.0,9.06219512195122,10.046656176239182
1874.0,7.713709677419354,9.979032258064516
1875.0,6.824193548387097,9.970161290322581
1876.0,6.912903225806452,9.178225806451614
1877.0,6.9346774193548395,10.54032258064516
1878.0,6.57588512981904,9.059067663257277
1879.0,5.688749016522423,10.538808025177026
1880.0,7.512674756400169,9.92652766850249
1881.0,6.726901894329116,11.126167060057696
1882.0,7.156999334261332,9.317519013899815
1883.0,8.381017369727047,7.813440860215053
1884.0,6.718734491315137,7.081720430107527
1885.0,7.0373918174665615,7.2927616050354045
1886.0,6.209421715184893,6.0431549960660895
1887.0,5.821243115656963,8.691738788355625
1888.0,5.87997639653816,8.78538552321007
1889.0,5.968214004720693,8.468095987411488
1890.0,7.509677419354838,10.305645161290322
1891.0,10.616601101494885,13.619374508261213
1892.0,9.361211644374507,10.241542092840284
1893.0,11.796243115656964,9.649173878835562
1894.0,11.38804091266719,9.532651455546812
1895.0,13.432730133752951,13.308261211644375
1896.0,10.577891424075531,11.082533438237608
1897.0,9.672340575763076,9.239777885371906
1898.0,10.946241098267063,10.693295709011682
1899.0,10.16303990397224,10.537373660957453
1900.0,10.902812241521918,9.565333171942141
1901.0,12.343302265528859,9.771415602493493
1902.0,15.55443501554831,11.808075755872764
1903.0,23.31487486418643,12.482303023491063
1904.0,19.935528829942676,16.44595181896519
1905.0,21.92606496571878,18.52864074032445
1906.0,21.208193773181968,21.852223595968677
1907.0,22.435510097036452,19.196388295680194
1908.0,17.384080776291633,17.99300138623506
1909.0,13.29874014000686,12.933756985212533
1910.0,16.424586435070303,9.211331679073615
1911.0,18.270800298573704,16.355193770299984
1912.0,18.78217434283524,18.183242046440313
1913.0,16.42173233270794,19.583959732897576
1914.0,15.61996459480724,19.116876475216365
1915.0,15.673288749016521,20.262470495672698
1916.0,14.41532258064516,18.241935483870968
1917.0,10.393961447678993,13.319276160503541
1918.0,13.461093627065303,15.342702596380802
1919.0,17.07490165224233,19.853206136900077
1920.0,20.552773406766324,19.279425649095202
1921.0,22.576789929189612,18.81955153422502
1922.0,17.411290322580644,17.758870967741935
1923.0,14.65967741935484,18.068548387096776
1924.0,17.928225806451614,21.302419354838708
1925.0,18.94193548387097,27.083870967741934
1926.0,26.32610149488592,29.53630999213218
1927.0,21.471518489378443,24.244767899291894
1928.0,19.86949252557042,26.089201416207707
1929.0,14.238375295043273,17.99915420928403
1930.0,10.70507474429583,14.21852871754524
1931.0,8.57755704169945,10.490066876475215
1932.0,18.76420141620771,10.794256490952005
1933.0,17.487136113296618,15.664240755310779
1934.0,15.031136900078678,17.58467741935484
1935.0,17.433329586752087,18.25960061443932
1936.0,12.494586190101533,12.535124199168258
1937.0,14.01951968828444,15.236484208160052
1938.0,10.146266531789742,12.180397886928176
1939.0,12.173447978719418,15.90137124873553
1940.0,12.27620171593421,16.991161814843956
1941.0,13.719590873328087,21.624075531077892
1942.0,10.71831588291069,14.562436200044381
1943.0,10.504555266396336,13.386253505214952
1944.0,13.011207609594706,15.744582299421008
1945.0,12.87011993382961,16.264226633581472
1946.0,11.626592224979323,13.55066170388751
1947.0,11.091129032258065,13.88790322580645
1948.0,12.8338512981904,14.402202989771833
1949.0,13.702812745869394,15.553520849724626
1950.0,11.859067663257278,12.550550747442959
1951.0,14.598485444531864,14.970436664044058
1952.0,15.954838709677418,16.1213217938631
1953.0,13.119826907946498,15.58859166011015
1954.0,13.411762391817467,16.915165224232886
1955.0,16.37523603461841,18.37734067663257
1956.0,16.763021243115656,20.39512195121951
1957.0,15.434775767112509,18.888355625491737
1958.0,16.81326433859872,21.39004115475398
1959.0,15.733540115798178,21.498325062034738
1960.0,14.927253928866833,20.60198511166253
1961.0,11.34185277088503,14.071153846153846
1962.0,14.758023159636064,15.026302729528535
1963.0,13.74758064516129,18.590322580645157
1964.0,10.986290322580647,13.709677419354836
1965.0,10.011290322580646,11.375806451612902
1966.0,8.45,9.210483870967742
1967.0,8.475806451612904,7.662903225806451
1968.0,9.405133752950432,6.809343036978756
1969.0,8.115066876475217,6.726848937844217
1970.0,8.270436664044059,7.999311565696302
1971.0,8.655782848151063,8.595220298977184
1972.0,8.591935483870968,7.5928796223446104
1973.0,7.8793666404405975,9.608792289535797
1974.0,6.835247836349332,9.741089693154995
1975.0,8.641135084427766,8.770575863947226
1976.0,15.104841735762271,14.844562125522
1977.0,13.608282394238334,14.23219451673425
1978.0,12.609491315136475,14.027977667493797
1979.0,11.230148883374689,13.411166253101737
1980.0,9.13790322580645,11.572580645161292
1981.0,12.214516129032257,13.674193548387096
1982.0,11.655645161290323,14.466129032258063
1983.0,13.849193548387097,15.282258064516128
1984.0,12.251612903225805,11.73306451612903
1985.0,11.184677419354838,8.962096774193547
1986.0,14.29758064516129,14.379032258064516
1987.0,14.44032258064516,15.189516129032256
1988.0,14.290224232887489,18.124645948072384
1989.0,13.59529897718332,16.204209284028323
1990.0,13.014781415804233,14.60429653614154
1991.0,12.859810062740825,12.068680526135285
1992.0,13.254501805563962,15.621840263067643
1993.0,13.26281345195586,16.273784018237205
1994.0,10.721257237386268,11.806286186931349
1995.0,8.799999999999999,8.664516129032258
1996.0,8.115322580645161,7.025
1997.0,8.688709677419354,7.37258064516129
1998.0,6.684677419354839,7.011290322580645
1999.0,8.47258064516129,7.074193548387097
2000.0,8.406451612903226,9.70241935483871
2001.0,11.396774193548387,13.729838709677418
2002.0,13.301612903225806,16.579838709677418
2003.0,11.306451612903224,13.287096774193547
2004.0,13.05,14.657258064516128
2005.0,17.44384343036979,20.27547206923682
2006.0,13.409421715184893,13.186526357199057
2007.0,11.976140833988985,15.387096774193546
2008.0,10.123957513768687,12.011290322580646
2009.0,10.696656176239182,12.693548387096774
2010.0,9.828737214791502,10.761880409126672
2011.0,8.889771833202202,9.031746656176239
2012.0,7.743548387096774,6.59274193548387
2013.0,11.828225806451613,13.001612903225805
2014.0,16.103579858379227,15.863729346970889
2015.0,15.076435877261996,16.517486231313924
2016.0,17.512411487018092,19.65108182533438
2017.0,15.807374064435432,15.402701789424842
2018.0,15.573445096733845,17.367883152776937
2019.0,18.198052210050637,20.03618390526337
2020.0,13.048065106936075,14.124802079640789
2021.0,15.70508094056481,19.915626846272005
2022.0,11.288625890238793,15.411719731881021
2023.0,10.041893590280687,14.705994274542661
2024.0,9.588688730624213,8.859851975981009
2025.0,8.362854349951125,9.024242424242424
2026.0,11.110459433040077,7.023949169110459
2027.0,8.537634408602152,5.842933947772657
2028.0,8.459139784946236,5.067165898617511
2029.0,8.942703533026114,10.585714285714284
2030.0,9.861136712749616,9.79016897081413
2031.0,13.478955453149002,19.857450076804916
2032.0,13.131182795698923,14.864208909370198
2033.0,14.974910394265233,19.02816180235535
2034.0,14.788284690220173,15.929011776753711
2035.0,16.070025601638505,14.406134152585766
2036.0,11.074910933247097,11.241974829546987
2037.0,9.248668984288678,9.249251623682863
2038.0,8.206771768130002,8.152403589619208
2039.0,10.535279292199643,13.090816100559955
2040.0,9.613862847862995,13.453175364779408
2041.0,11.289172510518934,15.628251519401589
2042.0,10.952849462365592,14.293321645628797
2043.0,9.97782991202346,10.895988779803647
2044.0,10.256095881677929,9.468330995792426
2045.0,10.433910493433636,10.271865357643758
2046.0,11.204697182200688,9.733117429555017
2047.0,13.432643121254621,11.62812954226699
2048.0,17.066517064048618,17.822129287262527
2049.0,12.19010752688172,12.496852394916912
2050.0,13.086021505376344,10.79960899315738
2051.0,9.715521271622254,9.264142122487144
2052.0,10.472863275107315,8.050692762123337
2053.0,11.758914531004292,9.441035530621786
2054.0,12.655317480555908,11.375867227676483
2055.0,11.39419099834247,9.282019635343618
2056.0,9.94534234349101,9.115764375876577
2057.0,9.434548004590079,8.831342598495473
2058.0,8.954810659186535,13.030285179990651
2059.0,11.465287517531557,14.023024777933614
2060.0,11.917952314165497,11.113370733987844
2061.0,11.289206936121383,12.990639211186195
2062.0,13.681043133532615,16.22202211455367
2063.0,13.70281118808468,13.37892246447646
2064.0,13.358418216763237,14.863374275716492
2065.0,14.18139704667054,15.908882088769886
2066.0,13.65301523887779,17.00796010596852
2067.0,9.331000892515618,12.90821879382889
2068.0,9.226510263929619,13.888190743338008
2069.0,11.561361723830167,15.096269284712482
2070.0,14.806897870712737,19.267372179013133
2071.0,16.2956776743593,17.22606145607548
2072.0,17.502443792766375,16.659314037995664
2073.0,14.68319945599048,13.948871605253093
2074.0,12.320477708359896,11.996623740915465
2075.0,15.892154787708785,12.526904245824301
2076.0,16.256290322580647,18.24713183730715
2077.0,14.499784946236558,16.867517531556803
2078.0,12.30372136512389,17.02492286115007
2079.0,14.892505843852266,12.304289387564282
2080.0,16.188799353988696,14.24140422457393
2081.0,13.189070083726467,10.912427217476306
2082.0,12.536739342938501,13.356751243146755
2083.0,10.809213343925826,10.89053443050638
2084.0,9.624076718045863,11.171073666866093
2085.0,11.395807324979835,12.686454849498327
2086.0,11.12169982892283,11.804190491602835
2087.0,8.093806903708726,9.817713525371309
2088.0,9.160427025055355,9.473372891717911
2089.0,11.059576365663322,7.71798611860323
2090.0,9.960363217894773,7.174561081742008
2091.0,11.023576386213131,9.040813566984674
2092.0,10.136304322138823,8.605137966288037
2093.0,9.604220931009149,8.229279369531824
2094.0,10.69047619047619,7.653242503172376
2095.0,11.952764976958527,8.619047619047619
2096.0,8.657642089093702,7.8448540706605225
2097.0,9.235407066052227,9.554147465437786
2098.0,13.859447004608294,15.168970814132102
2099.0,11.126344086021504,12.02995391705069
2100.0,11.803763440860214,9.797235023041475
2101.0,9.716648300273825,9.068757096106324
2102.0,8.750021834173307,10.130945959136703
2103.0,10.83430431186392,7.94104901643471
2104.0,9.857895493940376,7.216550688675513
2105.0,10.641313338368036,5.6788398604667885
2106.0,11.330249937066206,5.699027223361023
2107.0,12.001407199625994,12.13883824216924
2108.0,10.547045348293594,9.40266479663394
2109.0,10.783306952514526,7.544750550991786
2110.0,8.067056702063715,6.348988178721699
2111.0,7.024711146730782,5.618580110866226
2112.0,11.826521071261604,10.630659429397157
2113.0,9.914270353302612,7.313843038681748
2114.0,9.988695014662756,8.022233626588466
2115.0,8.470948191593353,5.9695112414467255
2116.0,9.662893450635387,5.572121212121212
2117.0,11.059941348973608,8.01626588465298
2118.0,8.745574019767568,7.612577386770935
2119.0,10.305268506881411,5.85439649955779
2120.0,18.393230963883138,12.063976268394219
2121.0,11.649426374882195,10.43673334223825
2122.0,9.136349132141559,7.8242614483848705
2123.0,8.150270486876376,6.058572096440259
2124.0,12.591531423228478,8.391504708475255
2125.0,12.093568423161692,10.574901489347491
2126.0,11.889000200360648,10.622654110732652
2127.0,14.18657522935223,11.488467119603165
2128.0,13.729047983339708,11.949702069786222
2129.0,13.02058672276765,10.637990139827446
2130.0,15.48350764709811,14.130631014614183
2131.0,15.4921044546851,14.550121491411813
2132.0,11.262181259600615,11.325647255969837
2133.0,8.53674819803852,7.948084173890624
2134.0,10.036638793651417,6.448541640687504
2135.0,8.516783298515415,5.286482801910571
2136.0,9.214708853558783,4.963133874073565
2137.0,7.625795662962563,4.711151868234618
2138.0,10.178336390117597,8.04521343546589
2139.0,8.448214478368754,5.6460288776207435
2140.0,11.800842332048504,10.304013950051818
2141.0,13.322639492344962,16.00050510499318
2142.0,12.801734030345532,15.668366696417188
2143.0,14.020243431183122,14.780509812767878
2144.0,11.04985991100998,9.465991231769632
2145.0,9.413493005358362,6.202395080375445
2146.0,9.527784370841875,9.469360233034847
2147.0,9.683310775246259,8.80946017516845
2148.0,8.210141739980449,7.480763100854265
2149.0,8.001173020527858,5.490623485911003
2150.0,7.355425219941349,6.068359896298185
2151.0,11.912354966211907,12.967560032300565
2152.0,9.817858812529218,11.402646096306686
2153.0,9.527208976157082,11.017592332865824
2154.0,8.699509116409537,9.087365591397848
2155.0,15.103053678439373,12.57893450635386
2156.0,17.611835394619405,12.377188788303794
2157.0,14.646697267202176,14.102922351141146
2158.0,16.062595945429045,16.15629988524799
2159.0,15.41824797108368,14.950291891154606
2160.0,14.140802522059086,13.967290897399675
2161.0,14.05764807273247,16.58995043403708
2162.0,11.499822500267925,11.250090424391813
2163.0,9.370610889804517,12.209626114735372
2164.0,9.551772061556422,10.783732787300169
2165.0,18.631805367755312,13.295065407689307
2166.0,18.50982616474787,11.70642242627526
2167.0,13.4304480375413,10.67421110596798
2168.0,13.063015753938483,9.047261815453863
2169.0,10.828426618849834,8.260443159570379
2170.0,7.911623376227331,10.16851686789293
2171.0,7.406299310019142,8.49348574077317
2172.0,8.323876265233555,9.02075780269109
2173.0,8.580346306088718,7.201855341884251
2174.0,9.972368092023006,8.508627156789197
2175.0,8.986568070589076,7.6828850069660275
2176.0,8.205212017290037,8.362822848569284
2177.0,10.358680579235717,7.804543668384628
2178.0,8.78302692556256,7.771319453239933
2179.0,8.506667251228393,6.849275630595961
2180.0,8.055974533093814,6.447826991712963
2181.0,8.785751707657184,7.143643428339602
2182.0,9.354019548843254,8.344109104199127
2183.0,10.830850020197357,8.474205089733971
2184.0,14.455334987593051,17.08151364764268
2185.0,11.107985837922895,12.974606608969314
2186.0,10.317088157056684,14.13908901877037
2187.0,10.997253755947696,13.03285096099809
2188.0,12.025239781199655,11.410377093402271
2189.0,12.190442471244989,14.862043385410812
2190.0,12.937864823348693,16.721658986175115
2191.0,11.786290322580644,12.143548387096773
2192.0,10.244933829611249,13.516708023159635
2193.0,11.806395486234196,15.092647406357083
2194.0,11.817310646342904,14.383017251565636
2195.0,12.065106936074677,14.34191185158927
2196.0,11.461585726101855,10.683859151601087
2197.0,11.240552995391706,10.432334869431642
2198.0,12.062903225806451,11.221774193548386
2199.0,9.801612903225806,10.123387096774191
2200.0,9.553225806451612,8.080645161290322
2201.0,9.930645161290322,12.907258064516128
2202.0,8.930645161290322,11.009677419354839
2203.0,9.289516129032258,7.050806451612903
2204.0,10.120967741935484,5.351612903225806
2205.0,9.760483870967741,5.658064516129032
2206.0,8.141335814722911,4.626137303556658
2207.0,9.012200165425972,4.875165425971877
2208.0,7.6004549214226635,5.234760132340777
2209.0,10.076840363937137,11.97504135649297
2210.0,9.217255744517743,9.478875910347194
2211.0,8.243450039339102,11.35837922895358
2212.0,8.337450826121163,9.42677025963808
2213.0,9.719354838709677,7.456687647521637
2214.0,8.799685287175452,7.9910306845003936
2215.0,7.838709677419354,8.231785995279308
2216.0,7.692269866247049,8.161939417781275
2217.0,11.102989771833201,15.599921321793863
2218.0,12.316797797010228,16.13725413060582
2219.0,16.020701950816033,20.657402307894046
2220.0,17.52886985817749,16.21012326252295
2221.0,19.41864421311707,16.77146603724102
2222.0,13.620209203332728,11.389765276685024
2223.0,15.973814279085719,17.083189089955415
2224.0,17.958536585365852,19.976003147128246
2225.0,13.465420928402832,14.999960660896932
2226.0,9.905645161290321,10.166935483870967
2227.0,11.016935483870967,11.587195121951218
2228.0,13.860483870967741,16.564968528717543
2229.0,11.344354838709677,11.125629425649095
2230.0,15.08985051140834,15.433359559402044
2231.0,14.23524783634933,13.99893784421715
2232.0,11.698269079464989,9.41229346970889
2233.0,12.159618410700235,7.429130605822186
2234.0,12.809244689221085,8.86577498033045
2235.0,9.017142266335814,7.361703887510339
2236.0,7.560587262200165,7.352626137303557
2237.0,9.207811333696462,6.313577034033368
2238.0,10.411163731364361,7.125336904113458
2239.0,8.577759285037018,6.172749097218019
2240.0,10.366266719118803,9.228953579858379
2241.0,11.932730133752951,12.261250983477577
2242.0,10.075963808025177,9.052104642014163
2243.0,12.217820613690009,14.605487804878047
2244.0,11.919394177812745,15.899921321793862
2245.0,13.74805271439811,14.212745869394176
2246.0,15.911526357199055,12.56685680566483
2247.0,15.362411487018097,14.497895357985838
2248.0,14.286526357199056,11.650688434303698
2249.0,15.874311565696303,14.23784421715185
2250.0,12.018194335169158,10.051652242328874
2251.0,13.565145554681353,14.692761605035404
2252.0,11.153383162863886,11.796420141620771
2253.0,10.266306058221872,12.563591660110148
2254.0,13.564201416207709,16.720102281667977
2255.0,16.09193548387097,19.655645161290323
2256.0,13.400806451612903,15.339516129032258
2257.0,12.943548387096774,14.64516129032258
2258.0,11.64758064516129,10.270967741935483
2259.0,12.71290322580645,13.09758064516129
2260.0,10.34516129032258,9.663709677419355
2261.0,9.629838709677419,7.656451612903226
2262.0,10.33244416873449,9.931534325889164
2263.0,13.144457725594625,13.527873771913898
2264.0,18.383056950916902,17.620319655429803
2265.0,18.87734319836995,22.1342810022393
2266.0,15.745526437894652,20.70222114628094
2267.0,15.307006395125985,18.50181363352095
2268.0,14.289301781355281,16.20606023926244
2269.0,10.923407775020678,11.523407775020678
2270.0,11.541935483870967,12.348387096774193
2271.0,14.45967741935484,12.27016129032258
2272.0,13.248426435877262,11.765617623918175
2273.0,13.879858379228953,14.005389457120376
2274.0,14.642348544453185,16.562372147915028
2275.0,13.843843430369787,17.22667191188041
2276.0,11.389968528717546,16.923170731707316
2277.0,14.80238001573564,19.44348937844217
2278.0,22.677399685287178,23.04795436664044
2279.0,19.89331235247836,20.839181746656173
2280.0,22.17403619197482,25.163886703383163
2281.0,24.546892210857592,25.83607395751377
2282.0,15.45715971675846,18.05769079464988
2283.0,18.389831778502117,25.661084260612192
2284.0,19.494286463601963,25.798284065789964
2285.0,21.7842793450976,27.190723464838335
2286.0,16.19591622644337,21.740601700947884
2287.0,11.821640253268892,16.492330748192273
2288.0,12.672187254130606,18.37120377655389
2289.0,9.437903225806451,12.680645161290322
2290.0,12.525767112509834,15.77360346184107
2291.0,12.474020269004534,17.683575924468922
2292.0,13.89789723127646,19.125255704169945
2293.0,14.029997002735003,17.24246656176239
2294.0,13.320643662657826,16.718410700236035
2295.0,12.786600352178636,14.696734854445321
2296.0,18.271026750590085,15.627399685287173
2297.0,21.41793863099921,18.13656569630212
2298.0,27.11976040612941,19.44767992956427
2299.0,23.556172492600503,20.60781911505751
2300.0,21.25605634858192,18.13490877074669
2301.0,15.802143044471919,15.672234086396161
2302.0,16.38215128695066,12.812063991607658
2303.0,17.024371510996215,14.99910644037316
2304.0,20.949299389307257,17.22820707354539
2305.0,34.83312727136488,37.50530141246113
2306.0,52.253830879322614,76.90959499456746
2307.0,36.12307519388558,50.61455172155408
2308.0,28.84144468172792,39.897793263646925
2309.0,29.272488853920798,28.9980517777528
2310.0,23.30697613427747,28.430182458506614
2311.0,21.041736915065,19.764246375182644
2312.0,22.070791652616986,18.95931212768349
2313.0,18.053669776329098,16.782098834813233
2314.0,10.098647484170694,18.421003334457307
