time,emg_right_hand,emg_left_hand
0.0,14.317073170731707,3.5121951219512195
1.0,11.939024390243901,2.854065040650406
2.0,9.402439024390244,3.1088850174216027
3.0,11.134471544715447,3.450813008130081
4.0,9.151612903225807,3.5957907159716758
5.0,8.202950432730134,3.7799567269866245
6.0,8.573249409913453,4.210542879622345
7.0,8.700219175002811,4.264027200179836
8.0,9.357721703945149,4.8158255591772505
9.0,13.605783784796374,5.911472031771009
10.0,16.40065939829905,5.812561350267881
11.0,12.71261848563186,8.448465774980331
12.0,15.311378367239893,7.9099471732044515
13.0,11.970244651755273,7.159536922558166
14.0,10.296028623880709,7.04259488217002
15.0,8.753993855606758,6.617127496159754
16.0,7.366935483870968,6.165322580645161
17.0,7.231451612903226,6.268548387096774
18.0,8.964398111723053,5.536565696302124
19.0,9.856315799333107,5.310967179948297
20.0,10.393077254505265,4.826854557716084
21.0,8.814683788542954,4.189636956277397
22.0,6.919841894271477,3.8109475103967627
23.0,8.527112135176651,4.0207373271889395
24.0,9.149193548387096,4.843548387096774
25.0,9.496774193548386,4.892741935483871
26.0,10.4985051140834,4.477596380802518
27.0,8.663768686073958,3.8980723839496463
28.0,8.29720692368214,3.996616837136113
29.0,7.513119590873328,3.9587922895357988
30.0,8.50051140833989,4.906412273800157
31.0,8.312096774193549,4.865322580645161
32.0,8.253225806451614,4.882258064516129
33.0,9.055645161290322,4.671774193548387
34.0,8.760778914240756,4.436998426435877
35.0,9.124095200629426,5.41014948859166
36.0,8.300354051927616,5.65991345397325
37.0,10.173564122738004,4.996892210857593
38.0,9.65129819040126,4.233123524783635
39.0,8.063650668764753,3.987529504327301
40.0,7.336860739575138,3.36205743509048
41.0,8.33819877342694,3.1214236720530977
42.0,6.725147773810244,3.1163569973168714
43.0,5.473057757872864,3.721081724464887
44.0,8.43755169561621,3.7225392886683206
45.0,8.013150356069318,3.7916984405576066
46.0,11.2463217938631,4.806176239181746
47.0,9.4397128245476,4.290912667191188
48.0,9.400325808469002,4.233256168169622
49.0,11.331614517137726,3.81138614860094
50.0,8.703572797514575,3.9839778894066855
51.0,9.733769089551938,3.886638826686034
52.0,7.196546228489579,4.0762855817143775
53.0,7.320771046420141,4.219579633584354
54.0,10.595869394177813,4.4291446555018545
55.0,9.263709677419355,4.160599078341013
56.0,9.230645161290322,5.514976958525345
57.0,12.629032258064516,7.359907834101382
58.0,14.929032258064517,6.616129032258064
59.0,17.37016129032258,4.79516129032258
60.0,15.990322580645163,3.7798387096774198
61.0,19.626612903225805,4.4387096774193555
62.0,17.55418961447679,6.001003147128245
63.0,11.207643962384324,4.897333370799146
64.0,8.40924094263984,4.91757895919973
65.0,8.869293956764453,5.044627402495223
66.0,11.808437300962872,5.081338278820576
67.0,8.650481435689933,5.225169532801319
68.0,6.783634933123525,4.4386497321194405
69.0,7.3438842825152815,4.258099099955905
70.0,7.415687223869757,4.150056631016504
71.0,7.5691339345155235,3.979559805523613
72.0,6.480494433444866,4.0648801238101
73.0,7.122072551104809,4.541173342786246
74.0,7.2409370199692775,3.868932411674347
75.0,8.234178187403995,3.6880952380952383
76.0,7.988863287250384,3.2658218125960063
77.0,11.236290322580643,3.8879032258064514
78.0,11.068548387096774,4.1217741935483865
79.0,9.660483870967742,4.60241935483871
80.0,7.313257277734067,5.20265538945712
81.0,6.873564122738001,4.580763178599527
82.0,7.891620771046419,5.056510621557829
83.0,7.732907159716758,4.8189811172305275
84.0,8.73143194335169,6.079819040125885
85.0,7.27956333595594,5.779878048780487
86.0,5.509539732494099,5.85889063729347
87.0,5.818469708890637,5.471734854445319
88.0,6.901573564122738,5.862077104642014
89.0,7.372029897718332,5.536388670338317
90.0,8.495613690007868,8.486132966168372
91.0,7.747403619197482,9.025727773406766
92.0,8.70241935483871,8.456451612903226
93.0,6.054838709677419,6.941129032258065
94.0,10.719354838709677,6.908064516129032
95.0,10.27741935483871,5.982258064516129
96.0,8.614516129032257,6.6967741935483875
97.0,6.28068450039339,7.49008654602675
98.0,6.992761605035405,6.03133359559402
99.0,5.729445318646734,5.383005507474429
100.0,6.769116786701365,4.433128063910912
101.0,7.00149387722165,4.057289838407068
102.0,8.243075813512476,4.551461598983235
103.0,6.580005648691722,7.904763057556134
104.0,5.226745546611793,9.388730860013315
105.0,5.157376081825334,8.327616050354052
106.0,7.49441384736428,6.6573564122738
107.0,6.693705743509048,6.432769472856019
108.0,8.45330448465775,6.728481510621558
109.0,6.3473325062034744,6.354880066170389
110.0,8.070843672456576,6.5072787427626135
111.0,9.400744416873449,8.38670388751034
112.0,11.086682200568903,7.5052421876576085
113.0,7.819954003510258,7.559879158344932
114.0,8.886900078678206,7.113355625491739
115.0,8.76931549960661,7.049331235247836
116.0,8.108851298190402,7.090794649881982
117.0,5.991876475216365,5.7173092053501176
118.0,6.790696302124312,6.361880409126672
119.0,5.604327301337529,7.039063729346971
120.0,8.48147128245476,7.161860739575138
121.0,9.120497545989284,6.782370461953468
122.0,8.132081975197632,6.894175002809936
123.0,7.828944213405268,7.437006856243678
124.0,22.82115975422427,15.710714285714287
125.0,23.086789554531492,15.62188940092166
126.0,18.53737214791503,11.118745082612115
127.0,13.498013375295045,8.7081038552321
128.0,9.582474429583007,7.245180959874114
129.0,8.972285601888277,6.727832415420929
130.0,9.831707317073171,6.743351691581432
131.0,7.18273013375295,7.677970102281668
132.0,6.500806451612903,6.846774193548388
133.0,9.609677419354838,6.025806451612903
134.0,7.815361919748229,4.641247049567269
135.0,7.780664830841857,6.349252557041699
136.0,7.851219512195122,7.088335955940204
137.0,6.991738788355626,7.137313139260424
138.0,7.307159716758457,5.497285601888277
139.0,9.516129032258064,4.849193548387097
140.0,11.508870967741935,7.443548387096774
141.0,12.802419354838708,7.324193548387097
142.0,11.564417781274587,6.69390243902439
143.0,9.32264520163812,7.4924847182715
144.0,8.333096794367448,6.246645584942201
145.0,7.512919364925659,4.98824214730981
146.0,7.396939619520264,5.17223869757308
147.0,5.585959974984365,4.6278187980390975
148.0,5.470812907260586,4.154273336157679
149.0,5.001938711694809,3.8291527971110977
150.0,5.409033871976437,3.541592527587807
151.0,6.816003954084205,2.9737860356271053
152.0,7.756782464846981,3.368403639371381
153.0,9.184677419354838,5.9322580645161285
154.0,10.856865177832919,5.039557485525227
155.0,10.637303556658395,5.189536807278743
156.0,8.87671629445823,4.502832919768403
157.0,7.611233835663418,3.524911739191834
158.0,6.645723133409994,3.969241864875224
159.0,7.266699449252557,3.427714398111723
160.0,7.893430369787568,4.467486231313926
161.0,7.960424862313139,3.733831628638867
162.0,9.075806451612902,4.003029110936271
163.0,8.45380832778551,4.310477818798039
164.0,8.113204321249167,4.5754100344973665
165.0,6.6408763541729705,4.586092114022877
166.0,5.6817284996671304,5.108781698238818
167.0,6.188071173515706,6.189560007262603
168.0,7.481545925881094,5.561281244326091
169.0,10.236839052633702,6.228319615082007
170.0,8.71075823599427,6.291175936573261
171.0,10.00658879541649,8.772200871512437
172.0,10.996842784805018,7.005858500272347
173.0,9.184303697875688,6.205586152635719
174.0,8.733615263571991,5.7410306845003936
175.0,8.393823760818254,4.5624508261211645
176.0,7.682395751376868,4.9671125098347755
177.0,7.1085365853658535,4.849685287175452
178.0,6.673387096774194,7.421774193548387
179.0,6.826612903225806,7.173387096774194
180.0,6.67741935483871,7.414516129032258
181.0,6.069197482297403,7.570535011801731
182.0,5.713630999213217,7.244138473642801
183.0,6.818467691500736,6.017375274869374
184.0,9.760443523169723,5.542961830983074
185.0,9.809578567249691,5.960888861990357
186.0,6.867495813915956,7.914984163489278
187.0,6.275683390828945,9.176040468841412
188.0,10.585070810385524,9.243686073957512
189.0,7.620810385523209,8.50456333595594
190.0,7.6014358772619985,8.445594020456333
191.0,10.588217938630999,8.271184107002359
192.0,7.667092840283242,7.0916404405979545
193.0,9.429110936270654,6.494610542879622
194.0,9.925806451612903,9.110483870967741
195.0,7.484677419354838,9.311290322580643
196.0,5.270161290322581,10.291935483870967
197.0,6.041935483870968,9.912903225806453
198.0,6.7612903225806456,9.414516129032258
199.0,8.212962234461054,10.550059008654603
200.0,8.604464988198268,8.748013375295045
201.0,9.034893784421715,9.303442171518489
202.0,7.169866247049567,7.9061565696302125
203.0,9.12686860739575,9.19138473642801
204.0,8.00725806451613,7.362096774193548
205.0,7.950806451612903,7.851612903225806
206.0,8.21290322580645,8.308064516129033
207.0,6.9362903225806445,8.021774193548387
208.0,6.129838709677419,7.82983870967742
209.0,5.822600314712824,6.755704169944925
210.0,5.635090479937057,7.2826907946498824
211.0,8.35786782061369,6.7123131392604245
212.0,7.780112570356473,7.294824890556597
213.0,9.194894994855655,7.6647511549557175
214.0,9.28194789081886,8.256844499586435
215.0,8.087344913151364,7.950599669148056
216.0,8.524317617866005,8.14586435070306
217.0,9.166129032258063,7.300806451612903
218.0,9.769354838709678,7.056451612903226
219.0,10.283870967741933,7.425806451612903
220.0,8.480704169944925,6.32122344610543
221.0,12.554268292682927,5.972856018882769
222.0,13.10092446892211,6.791266719118804
223.0,10.731510621557828,6.794826907946499
224.0,9.166561762391817,6.8066876475216365
225.0,9.249685287175453,9.176042486231314
226.0,11.212096774193547,9.076612903225806
227.0,10.49625723738627,7.790818858560794
228.0,11.705789909015715,7.824441687344914
229.0,11.934838306199438,7.188046964836893
230.0,8.811773991809396,8.107733159837801
231.0,9.430483770098245,7.265560128305998
232.0,6.736250983477575,7.578933910306844
233.0,6.994335169158142,8.114870180959873
234.0,7.7548387096774185,7.551612903225806
235.0,8.596774193548386,6.22258064516129
236.0,10.237903225806452,7.3677419354838705
237.0,12.704622344610543,5.407769472856018
238.0,9.656628638867033,4.704819040125885
239.0,7.408320220298977,5.034559402045634
240.0,5.442033831628638,5.067230527143981
241.0,5.765538945712038,4.5625491738788355
242.0,8.1573564122738,4.7033831628638865
243.0,6.917387883556255,4.173092053501181
244.0,12.85759244689221,4.115342250196695
245.0,11.16601101494886,5.538001573564122
246.0,7.559323367427224,4.817466561762391
247.0,9.388001573564122,6.408654602675059
248.0,11.672915027537371,4.938867033831628
249.0,12.311207897793263,4.750462702783709
250.0,11.87668970814132,4.947772657450077
251.0,8.56736727735941,4.837340301974448
252.0,7.04497396126035,5.310605634858192
253.0,8.135508223745832,5.16731107864074
254.0,7.002085909107938,5.0049305009179115
255.0,8.22709527556105,4.986650931025439
256.0,9.655168408826945,4.81740099659061
257.0,9.84778389719381,4.808969315499606
258.0,10.36212955677944,5.181825334382376
259.0,12.750957251507998,10.635843542767223
260.0,16.352588756945334,10.951098358213246
261.0,19.458552442988797,11.323129824267912
262.0,17.45339296496598,9.557801471273741
263.0,11.881063122923589,7.489600971671489
264.0,11.817029257314328,6.484508627156789
265.0,9.641563275434244,6.769251447477254
266.0,8.901426799007444,9.53502894954508
267.0,11.26240694789082,7.920740281224152
268.0,11.154236518791986,7.762720652020416
269.0,7.979537614234704,8.045876455042466
270.0,8.99870180959874,6.087785208497246
271.0,7.709185680566483,5.690912667191188
272.0,9.072265932336743,5.512509834775766
273.0,9.118745082612115,4.573328088119591
274.0,15.452210482934323,9.686625641602038
275.0,15.835974673110787,11.14075905736016
276.0,15.35386459855382,10.21475403694129
277.0,14.48102356599603,9.187628788730283
278.0,13.38606646435128,8.737795511595667
279.0,12.56945412311266,8.378651980068188
280.0,8.335955940204563,6.377498033044846
281.0,7.996852871754523,4.769866247049567
282.0,8.551534225019669,6.295633359559402
283.0,7.124232887490166,6.616424075531078
284.0,16.661231313926045,8.185778914240755
285.0,19.17655238152878,10.0133299037705
286.0,17.75803425528052,9.71392301640138
287.0,16.846050959268897,8.885521697028384
288.0,13.07373358348968,6.143006717908371
289.0,11.184425894063974,5.901108843949126
290.0,11.315538009066728,7.240628863661908
291.0,9.666000711850437,7.29843205574913
292.0,9.99872616237683,6.087733693005133
293.0,11.233430744445691,5.278327900790529
294.0,9.73859166011015,6.334988385598142
295.0,11.855232100708104,5.230564609793563
296.0,9.007159716758457,4.573110786407403
297.0,8.55357985837923,5.0966168371361125
298.0,9.793469708890637,5.37993705743509
299.0,7.675424300325952,5.44713386534787
300.0,7.44573732718894,5.55794930875576
301.0,9.751497695852535,6.133410138248848
302.0,7.2867736315612,6.828467460941891
303.0,6.755080364167696,5.723507924019332
304.0,5.751042486231314,4.565440597954366
305.0,5.762214791502753,4.050059008654602
306.0,6.921833202202989,5.866561762391817
307.0,10.065952006294257,6.0355625491738785
308.0,9.510798583792289,5.794394177812746
309.0,6.291286388670338,6.85405192761605
310.0,7.81014948859166,7.661644374508261
311.0,7.747010228166797,7.694531864673484
312.0,7.139044059795436,8.39171911880409
313.0,6.858634933123524,7.809972462627852
314.0,8.927301337529503,7.082808811959087
315.0,7.59236821400472,8.245967741935484
316.0,13.362313139260424,7.237096774193549
317.0,9.837096774193547,8.376612903225807
318.0,8.927419354838708,8.562903225806451
319.0,7.025806451612904,7.829838709677419
320.0,8.623387096774193,7.634677419354839
321.0,8.112726199842644,7.78221872541306
322.0,8.676927616050353,8.821754523996852
323.0,7.732415420928403,9.199586939417781
324.0,14.142014162077105,10.988906372934697
325.0,36.0756884343037,10.434067663257277
326.0,53.952609493836874,7.523148252219849
327.0,42.570659585628114,8.690260762054626
328.0,33.34834120115395,10.044756659548163
329.0,49.86100183582481,16.967067550859838
330.0,31.912011539470228,15.878498370237159
331.0,23.566089693154993,12.03001011576936
332.0,21.768528717545237,12.204405979543665
333.0,14.865145554681352,10.538630999213218
334.0,10.627694728560188,7.495515342250197
335.0,9.649409913453972,6.822501966955153
336.0,8.548383061994391,6.523387601121669
337.0,8.201689564042042,5.7698369948960035
338.0,12.285561540478927,5.170146664245799
339.0,16.65536928322137,7.0584800984486264
340.0,13.565135467731848,7.399971756541387
341.0,16.76624704956727,9.490086546026749
342.0,11.4728166797797,9.55739575137687
343.0,8.699036191974823,7.25824154209284
344.0,6.001968468195849,6.3850450886642856
345.0,8.887913817103431,6.240634267384857
346.0,6.167403013980512,5.617563396477637
347.0,6.995896628941475,4.91381710343158
348.0,6.368129274344852,6.203958118985657
349.0,7.238473642800944,6.120771046420142
350.0,6.17840283241542,6.135444531864674
351.0,9.593214004720693,5.629091266719119
352.0,14.980881195908733,6.7826907946498824
353.0,25.425250084298078,7.720295230602076
354.0,23.54180255228642,7.839075977785655
355.0,17.450553125081054,7.7983145427873986
356.0,18.0621274673399,9.544269387837444
357.0,25.564905197084585,10.109339650645708
358.0,25.611975226452017,16.614577659424235
359.0,18.51863059573524,16.727511146079202
360.0,13.564549271866344,11.274774268480012
361.0,11.494312401472119,9.26012513581357
362.0,9.963877192830772,6.95395451650369
363.0,8.71702071859428,6.011539470233411
364.0,9.14175190138998,6.112378704432205
365.0,13.985388333146004,5.806339215465886
366.0,12.906785058633996,6.618466898954703
367.0,15.440642913341575,5.269986137649395
368.0,50.05503727848339,5.112105204001348
369.0,54.43705887608327,6.3679108198384355
370.0,51.79484729799443,7.8031528922166205
371.0,37.893396074159256,6.274286348322539
372.0,31.52473773931288,8.406766830075249
373.0,21.988460529766588,6.703786640844076
374.0,24.470326211946983,11.977865198006818
375.0,36.25782242934092,17.248255966430634
376.0,34.17391514858076,20.055913978494623
377.0,27.284500393391028,18.74878048780488
378.0,22.438473642800943,16.568706680154357
379.0,15.854996066089692,10.528668839683787
380.0,12.94321400472069,7.186403656663295
381.0,14.770259638080251,4.9455621745157545
382.0,16.808733280881196,4.620853471207523
383.0,17.449297516016635,4.381087257877187
384.0,12.820636169495337,4.025319396051104
385.0,11.158390468697315,4.031778502116818
386.0,10.372473291198705,3.6166477896611653
387.0,9.087849548825158,3.435743249669292
388.0,6.316966249066956,3.271865480441405
389.0,9.541645988420182,3.4600082712985936
390.0,7.132919768403639,3.832423490488007
391.0,7.9887096774193544,4.716129032258065
392.0,7.689811172305271,6.018450039339102
393.0,8.51587332808812,6.584225019669551
394.0,9.29301730920535,5.349370574350905
395.0,8.545849724626278,5.376416207710464
396.0,9.895318646734854,5.859520062942565
397.0,9.309579071597167,7.181923682140047
398.0,7.427340676632571,6.045712037765538
399.0,9.579858379228954,4.819826907946498
400.0,11.073170731707318,4.047993705743509
401.0,11.915027537372147,4.767112509834775
402.0,10.638867033831628,5.633359559402045
403.0,11.757199055861527,6.878363493312352
404.0,11.251455546813533,6.5551534225019665
405.0,11.61904012588513,6.3720692368214
406.0,10.043273013375295,7.148741148701809
407.0,9.0,9.558870967741935
408.0,6.334677419354838,8.869354838709679
409.0,6.309677419354838,8.0
410.0,8.651298190401258,7.577458693941778
411.0,7.4901652242328876,7.713729346970889
412.0,8.803147128245477,8.014929189614477
413.0,10.441089693154996,8.069158143194336
414.0,8.67946498819827,6.790243902439023
415.0,10.171136338091491,7.839391555205875
416.0,9.84150837360908,6.348551009703645
417.0,9.655588962571652,6.8149423026488325
418.0,9.131167809373947,6.750852347233149
419.0,8.067157468809711,6.666378179910831
420.0,7.753624817354164,6.914218275823311
421.0,8.672249072721142,6.549556030122513
422.0,9.734629650443969,5.246453860851973
423.0,9.56086321231876,6.0772001798359
424.0,10.21591547712712,6.158761380240531
425.0,9.050354051927616,6.91140833988985
426.0,9.99883855981417,6.981761642501217
427.0,9.974320932149414,6.05783597467311
428.0,8.44900153609831,6.99368427271653
429.0,11.599500768049154,6.015390523455039
430.0,8.88010752688172,6.816719839300484
431.0,7.14919945645752,6.709464728819567
432.0,9.478228760486825,5.917635590216236
433.0,8.355243412501476,5.076601087084958
434.0,6.706711568001889,4.631560912206073
435.0,7.9757060144156915,5.225150655795817
436.0,6.258986175115208,5.963940092165899
437.0,9.083171293694503,5.555484994942115
438.0,11.134730808137574,5.300814881420704
439.0,8.60354051927616,5.16308025177026
440.0,8.515479937057435,6.125491738788355
441.0,8.879464988198269,6.164752163650668
442.0,9.421951219512195,7.747757671125098
443.0,11.224209687506303,7.1939982650446845
444.0,9.850008069559603,7.813128164780406
445.0,7.271048581630801,8.057063314341047
446.0,9.217821694434598,9.063700815313718
447.0,11.94399149237859,9.106043956043955
448.0,10.4715821812596,9.053187403993856
449.0,8.16021505376344,9.873118279569892
450.0,6.763824884792626,9.345238095238095
451.0,7.06094470046083,8.576651305683564
452.0,9.360714285714286,7.676228878648233
453.0,6.509576261661234,8.326735603761568
454.0,7.610778914240755,7.9533831628638865
455.0,9.641679779701022,7.731530291109362
456.0,9.822856018882769,8.009716758457907
457.0,8.825767112509833,7.859756097560975
458.0,8.64380409126672,7.863788355625491
459.0,9.532907159716757,8.830920535011803
460.0,7.6655586152635715,7.314929189614476
461.0,10.11140833988985,6.982061369000787
462.0,9.250039339103068,7.212273800157357
463.0,9.871518489378442,6.936742722265932
464.0,8.431825334382376,6.936900078678207
465.0,12.654543666404404,7.377183320220299
466.0,19.209933123524785,11.554720692368214
467.0,16.6698859166011,14.263650668764752
468.0,15.48072383949646,10.787726199842643
469.0,15.493705743509047,9.195594020456333
470.0,20.77360346184107,9.130448465774979
471.0,19.36089188807521,7.174591478545059
472.0,18.450837649106727,8.30759143819726
473.0,17.22974612589089,7.938610825314207
474.0,15.803719490580228,7.791661262943718
475.0,17.133136205520152,8.665790543052541
476.0,15.105915851785245,8.606084447941253
477.0,10.129444382001424,7.319433516915813
478.0,11.78148064890787,7.024783634933124
479.0,8.981772882244952,7.59368326402158
480.0,12.253943276759957,6.920651155820313
481.0,13.861841070023605,8.072383949645948
482.0,14.028717545239969,7.820928402832415
483.0,12.259834775767114,6.772383949645947
484.0,11.71638473642801,7.228992918961447
485.0,9.232313542738405,7.138214408198673
486.0,6.797352680102483,6.857384151384938
487.0,6.925456434465088,6.580334483245577
488.0,8.750061026044502,6.539262442252214
489.0,10.04236922269967,6.693824769513204
490.0,11.51923494810985,6.760477314450563
491.0,11.461820463826758,5.954196170993967
492.0,9.923357124124237,5.778042223970626
493.0,8.158855981416957,6.552327563598217
494.0,9.380637668127832,6.752373459218463
495.0,11.608811959087333,7.445357985837923
496.0,10.231235247836349,7.390263571990559
497.0,9.406746656176239,7.785051140833989
498.0,9.062647521636507,8.342525570416994
499.0,9.959952793076317,8.072069236821399
500.0,9.06699449252557,9.337686860739575
501.0,9.78306451612903,8.538709677419355
502.0,8.88225806451613,9.596774193548386
503.0,7.725688434303697,9.363749016522423
504.0,7.855586152635719,8.414535798583792
505.0,7.4447285601888264,9.147187254130605
506.0,9.206058221872542,10.290066876475215
507.0,10.061093627065302,8.29059795436664
508.0,23.529996066089694,9.675590086546027
509.0,25.10572383949646,9.323682140047207
510.0,24.141974822974035,8.515066876475217
511.0,18.22983870967742,7.326612903225806
512.0,15.360464201416208,6.933398898505114
513.0,10.094846577498032,5.630743509047994
514.0,8.583444794125361,5.301220448840432
515.0,10.291587988460531,5.130429732868757
516.0,8.238132703907684,4.463601963208572
517.0,7.763598216627328,4.113468959574388
518.0,8.923655913978493,4.241628264208909
519.0,9.1252688172043,4.219278033794162
520.0,9.524999999999999,4.144354838709677
521.0,9.962903225806453,4.461290322580645
522.0,9.13778801843318,4.614016897081413
523.0,9.324539170506913,4.068701996927803
524.0,9.673963133640552,4.250076804915514
525.0,10.946658986175116,4.226651305683564
526.0,9.587698100483308,5.725147053313851
527.0,8.144079464988199,5.405507474429583
528.0,6.538758094776978,6.893634630515039
529.0,8.811314531259455,6.394801186225261
530.0,10.176644677116746,5.483710585244809
531.0,11.550950190643345,5.912193608908794
532.0,8.62490467832718,5.517829691944562
533.0,7.224114870180959,5.142289535798584
534.0,8.401573564122739,4.747757671125099
535.0,8.194964594807239,4.532572777340677
536.0,7.27765538945712,5.033792289535798
537.0,13.554248623131393,4.4610346184107
538.0,154.01260818253343,3.6873721479150277
539.0,224.2919223708366,4.631279126066694
540.0,141.03467086283766,4.41362343400109
541.0,76.8373196957776,5.25260243297222
542.0,47.4591791240493,6.981533317194214
543.0,40.3497901914503,8.314537311626218
544.0,30.780271439811173,8.119551534225021
545.0,53.828194032560674,8.30634317819605
546.0,43.770126202148234,8.712637794935198
547.0,43.88703005622754,8.850811423038017
548.0,29.80929000844422,37.7957440278054
549.0,22.106661133254367,54.977710723580124
550.0,23.1399310629051,41.30242029148402
551.0,19.74819040125885,23.99268292682927
552.0,14.314112434903151,15.980605822187254
553.0,9.672585328387846,9.825491738788356
554.0,8.098677456820651,6.620003933910307
555.0,6.692218350754937,5.064516129032258
556.0,9.156831890899554,5.642950807388258
557.0,8.320332696414521,5.172380203064703
558.0,6.465044396987748,5.6180547750177965
559.0,7.316623580982354,5.868704806863736
560.0,13.317556479712263,6.285257202802443
561.0,13.33320220298977,5.196852871754524
562.0,13.027734067663257,5.240047206923682
563.0,10.929445318646735,6.63859166011015
564.0,9.127222659323367,6.666070023603462
565.0,8.736191974822974,7.303599527930762
566.0,11.543036978756884,7.121833202202989
567.0,10.544935342653673,9.762131069821864
568.0,12.306338639068773,8.623404244588352
569.0,13.247524158244063,8.113718251326434
570.0,10.071568924125966,7.303161249974782
571.0,8.996838750025216,7.443476769755289
572.0,9.400983477576712,6.802714398111723
573.0,8.992427222659323,7.073937844217152
574.0,9.72887490165224,7.4793076317859954
575.0,11.776711250983478,6.227458693941778
576.0,9.823446105428797,6.881628638867033
577.0,7.7874901652242325,6.095279307631786
578.0,8.73766719118804,6.579760031471282
579.0,7.811172305271439,6.461054287962234
580.0,6.89897718332022,5.665617623918175
581.0,8.212745869394176,5.317702596380802
582.0,7.9391817466561765,6.575845790715972
583.0,6.768646734854444,7.160936270653028
584.0,9.748839496459482,7.567722265932336
585.0,10.670790715971677,6.802006294256491
586.0,11.841896144767901,5.3840676632572775
587.0,10.405605822187255,5.210523210070811
588.0,9.41573564122738,4.822128245476003
589.0,10.698996852871755,4.657435090479937
590.0,11.2426435877262,5.715814319433517
591.0,13.142864636019631,5.091394102881121
592.0,11.826954922863656,4.779048541283002
593.0,10.088615148292568,5.942159990547087
594.0,8.451073899874057,6.396493055855762
595.0,9.442683647325662,5.940374024087635
596.0,9.997455494937793,5.073489623410945
597.0,11.401197032707653,5.598910681503128
598.0,9.289423401146454,6.360496047356786
599.0,10.492263309729871,5.995616499943801
600.0,14.767483421377992,5.966779064104005
601.0,15.791959836649056,7.431546214079652
602.0,11.755145929339477,8.06943164362519
603.0,10.028719418530589,7.457264621033307
604.0,7.383575924468921,6.885070810385523
605.0,6.782513768686074,7.398583792289536
606.0,5.523111723052715,7.493646734854446
607.0,7.75712037765539,8.214162077104643
608.0,6.53985051140834,7.533910306845003
609.0,5.912647521636507,7.510621557828481
610.0,5.1728560188827695,7.448052714398112
611.0,6.408202202989772,7.549429583005507
612.0,6.050472069236822,6.546892210857592
613.0,7.041129032258064,7.343548387096774
614.0,7.164516129032258,6.8032258064516125
615.0,6.554838709677419,7.088709677419354
616.0,7.272088906372934,6.530330448465775
617.0,6.49693154996066,6.941778127458694
618.0,7.098210070810385,7.3433910306845
619.0,7.360188827694728,7.585818253343824
620.0,8.785925679356048,7.3794992838265845
621.0,10.690130424257095,8.54742076701164
622.0,13.523694244386611,6.80112973834453
623.0,10.955395509290078,5.5917529100849315
624.0,9.032379107910185,4.296191167867014
625.0,7.0891424075531075,4.21294256490952
626.0,10.116384736428008,3.978383162863887
627.0,9.986191974822972,5.141778127458694
628.0,10.483969315499607,4.730763178599528
629.0,7.359323367427223,3.862962234461054
630.0,9.568371361132966,3.218174665617624
631.0,8.185444531864674,3.2102675059008656
632.0,10.03155500413565,3.806761786600496
633.0,9.833519437551697,4.620719602977667
634.0,12.551171599184975,5.157330690552563
635.0,10.955251698209999,5.092394223924515
636.0,11.747098705123882,6.635801753976418
637.0,9.169914015960435,7.312030272376456
638.0,8.93889325990034,8.054325428046907
639.0,9.764175190138998,7.601198905998276
640.0,8.665497733318347,6.340077179573639
641.0,7.4752350979730995,7.5954516503690375
642.0,8.40284178187404,7.360983102918587
643.0,9.57016129032258,8.030645161290323
644.0,7.824999999999999,8.029838709677419
645.0,9.441129032258065,7.429838709677419
646.0,9.412352478363491,7.1477183320220306
647.0,10.803467388892251,7.283185055175614
648.0,9.926330468639673,7.269011882426517
649.0,9.598245879481127,6.950634973471322
650.0,9.138639068772822,7.09507555125179
651.0,7.755393491900179,7.829205753595996
652.0,9.592171518489378,7.3047600314712815
653.0,7.8493115656963015,5.921734854445319
654.0,7.660542879622344,5.291915814319433
655.0,8.553658536585367,6.7874901652242325
656.0,8.364555468135325,7.309952793076318
657.0,9.441532726387171,6.568340451837698
658.0,10.880485139041394,5.988729779268725
659.0,11.164032892101343,6.995574567053717
660.0,10.230000317018412,6.448593735139761
661.0,12.080775138839655,6.594399149237859
662.0,10.515425971877583,6.505955334987593
663.0,10.068548387096772,6.57258064516129
664.0,8.552635719905586,6.683654602675059
665.0,7.22309205350118,6.26481117230527
666.0,5.492997639653815,6.571518489378441
667.0,6.9884343036978755,5.827694728560189
668.0,9.582926829268292,5.607395751376869
669.0,8.80483870967742,6.306451612903226
670.0,9.092741935483872,6.504032258064516
671.0,9.151612903225807,5.424999999999999
672.0,9.403379416282643,4.768087557603687
673.0,7.306528417818741,4.2062211981566815
674.0,10.624153272638717,4.40720186579746
675.0,8.710866958900004,3.6185202877374394
676.0,12.041723802030646,3.789502079352591
677.0,9.5044256490952,4.176317859952793
678.0,8.006648308418567,4.325255704169945
679.0,8.271774193548387,4.203225806451613
680.0,7.328225806451613,4.699193548387097
681.0,7.780645161290321,5.291935483870967
682.0,12.241129032258062,4.546774193548387
683.0,9.543010752688172,4.094086021505376
684.0,8.605376344086022,4.83252688172043
685.0,7.334002098085497,4.347764227642276
686.0,6.812762008513385,4.117978474449757
687.0,8.038796425185096,4.477232746272872
688.0,7.599505739474268,4.798831426899877
689.0,8.282010934253263,5.549012487643487
690.0,8.610793035970062,5.227692711170288
691.0,8.564122738001572,5.2598347757671124
692.0,7.858064516129032,5.726612903225806
693.0,6.65241935483871,5.2588709677419345
694.0,8.091778127458694,4.353560188827695
695.0,7.116050354051927,3.891699449252557
696.0,7.83463808025177,4.157946498819827
697.0,11.6588512981904,4.108811959087332
698.0,11.23380352927953,4.643653291371624
699.0,10.919700460829493,5.914554531490015
700.0,7.811059907834101,7.249615975422428
701.0,9.406336405529952,6.933678955453148
702.0,10.223142632347983,6.484492900228541
703.0,6.5412357377738966,5.1307907015617475
704.0,6.725917408057455,3.870694889951381
705.0,8.060539349190018,4.173653896588593
706.0,6.344382577820816,4.071504367649135
707.0,5.711137000948174,3.5003469910629628
708.0,8.289398111723052,4.230487804878049
709.0,7.115263571990559,4.0708890637293464
710.0,7.222757671125098,3.9628245476003148
711.0,11.146459480723838,4.264476789929189
712.0,11.3463217938631,5.515715971675846
713.0,8.938453973249409,5.29683320220299
714.0,9.314791502753737,5.437529504327301
715.0,9.080133752950433,4.8626671911880415
716.0,8.418292682926829,5.080527143981117
717.0,11.316404405979544,4.871715184893784
718.0,9.641129032258064,4.973387096774193
719.0,11.479032258064516,5.675
720.0,14.320161290322579,5.981451612903225
721.0,13.867014162077105,6.719964594807238
722.0,10.834716758457906,6.242073170731707
723.0,9.289535798583792,5.800472069236822
724.0,9.670574350904799,5.50749409913454
725.0,10.617781274586939,5.498347757671125
726.0,11.704248623131392,5.500157356412274
727.0,9.474468922108576,6.094295830055074
728.0,9.089653815892998,5.786664044059795
729.0,7.540833988985051,5.313768686073957
730.0,8.264122738001573,5.438158929976396
731.0,10.559677419354838,7.073131392604248
732.0,11.330350118017307,7.7904602675059
733.0,9.460739575137687,7.213375295043273
734.0,7.831628638867033,5.567112509834775
735.0,10.543666404405979,6.113217938630999
736.0,17.67820613690008,6.543233674272226
737.0,16.010641227380013,9.429583005507475
738.0,13.996480663317799,9.372607879924953
739.0,13.078885492949222,9.19033619802699
740.0,10.01618350178539,8.277455667856927
741.0,8.833268776856503,7.470592507413908
742.0,8.960694183864916,7.628923319009864
743.0,11.011860739575138,7.472029897718331
744.0,12.809559402045632,7.425531077891423
745.0,13.188021243115656,7.509382376081825
746.0,9.997639653815892,6.5502557041699445
747.0,9.546400472069237,7.676337529504328
748.0,9.774763965381588,8.08743115656963
749.0,8.895436664044059,8.669826907946499
750.0,8.210110149488592,8.681490952006294
751.0,8.283357686111424,8.256164062792703
752.0,10.394904649507325,6.4768723539769955
753.0,9.706217883873274,6.556023782144947
754.0,11.894729712983057,6.1748647628269975
755.0,10.757750379701598,6.963514206747881
756.0,11.602049668139362,5.345550142225988
757.0,10.013928059876132,4.556242813048478
758.0,9.325491738788356,4.673406766325727
759.0,8.864358772619983,5.81573564122738
760.0,7.903776553894571,6.3694728560188825
761.0,7.740322580645161,7.651612903225807
762.0,8.248387096774193,7.674193548387096
763.0,8.087903225806452,6.971774193548386
764.0,8.125,7.516129032258064
765.0,9.89097167584579,7.749822974036191
766.0,12.311054287962232,6.314024390243902
767.0,11.136978756884343,5.499350904799371
768.0,11.230979543666404,5.166974822974036
769.0,11.173642800944137,7.841935483870968
770.0,9.8448859166011,7.015381589299764
771.0,8.67547206923682,5.852852084972462
772.0,7.300236034618409,4.720377655389457
773.0,8.617545239968528,4.436349331235247
774.0,6.827734067663257,6.101416207710464
775.0,7.857218725413061,7.305625491738788
776.0,9.12411184409611,5.787097278541024
777.0,13.599959147854506,5.64798412314148
778.0,13.58225683967226,5.3987424455953175
779.0,10.281991913148481,5.26670009769931
780.0,7.488124202050244,4.174656107071527
781.0,10.029421902513956,4.792456258663968
782.0,9.284065789966654,5.8954216777190815
783.0,8.425059008654603,4.9683713611329665
784.0,10.697187254130606,4.930291109362706
785.0,8.186900078678207,4.632081038552321
786.0,7.531208517420161,4.068883778167807
787.0,5.894233290968145,3.3546031794064834
788.0,6.4608263229034275,3.405124170348403
789.0,5.733953680727874,3.2234904880066173
790.0,5.537138130686518,2.9875516956162116
791.0,9.403225806451612,4.429838709677419
792.0,6.656451612903226,4.608870967741935
793.0,6.059520062942565,4.413611329661683
794.0,4.916960196897254,3.7978313058564828
795.0,6.927028485545401,4.021496298089532
796.0,9.169228247493393,3.8684192741431134
797.0,8.260096027759285,3.9099275757025556
798.0,7.051894329116987,4.345057827040518
799.0,6.535293731969578,4.353504926754336
800.0,7.151114607920272,4.405784721441685
801.0,11.54801993181222,4.495968678580795
802.0,10.363778052527067,4.211511370874076
803.0,11.565222359596866,4.067660447341801
804.0,10.744707953991982,4.776975384961222
805.0,8.208145067625791,4.62700535761118
806.0,5.800374658124461,4.430339814918886
807.0,8.971831328912367,4.291853059083586
808.0,8.01252856768199,4.6370555617998575
809.0,9.689269791315425,5.478460904424713
810.0,9.061762391817467,4.950904799370575
811.0,7.86345397324941,4.819905586152636
812.0,9.95674665617624,4.652753737214791
813.0,10.19087332808812,4.401376868607395
814.0,7.299999999999999,5.312096774193548
815.0,8.134677419354837,6.055645161290322
816.0,6.232258064516129,6.642741935483871
817.0,11.412096774193548,5.610483870967742
818.0,12.945967741935483,4.918548387096774
819.0,12.966129032258063,4.229838709677419
820.0,12.307278742762612,4.33564929693962
821.0,10.908478081058725,3.6008891645988417
822.0,9.74375516956162,3.3137510339123244
823.0,9.827522746071132,3.2532464846980975
824.0,7.740777502067824,3.890736145574855
825.0,7.674429583005507,4.579110936270653
826.0,9.263119590873327,5.33794256490952
827.0,14.695672698662468,6.838729346970889
828.0,14.4889653815893,5.612509834775767
829.0,13.519512195121951,5.0625491738788355
830.0,11.009244689221084,6.537018095987411
831.0,10.917446892210858,7.120121951219511
832.0,9.923406766325726,11.28343823760818
833.0,8.52261998426436,13.137254130605822
834.0,11.499805826222033,18.644733099316106
835.0,9.174499687304564,18.14938267869031
836.0,11.399277774415461,12.664915572232646
837.0,9.35967410507143,9.490975638575954
838.0,10.458200545848069,6.947769487265947
839.0,12.712805814694093,6.436167622044884
840.0,12.816316361320297,6.072784833839121
841.0,14.152959799183247,7.061663107414484
842.0,20.515260762054623,8.182914652879248
843.0,21.050539507699224,11.920833801655988
844.0,19.410812633471956,13.472031771008954
845.0,16.67424974710577,14.74128732531565
846.0,20.05995279307632,14.240440597954366
847.0,21.403529279532428,11.198861039301637
848.0,16.99467236147016,10.403072196620583
849.0,21.3089018770372,8.279663557004234
850.0,22.585096099808922,7.125315649469858
851.0,19.370046082949308,9.253609831029184
852.0,15.912740249522312,7.541120602450263
853.0,14.748210070810387,6.558438237608182
854.0,14.784185680566484,6.053009441384736
855.0,19.283221872541304,8.202714398111723
856.0,17.245318646734855,11.381667977970102
857.0,14.029425649095199,10.3698269079465
858.0,12.202439024390243,8.976730920535012
859.0,11.4284114063225,9.295054873005306
860.0,10.80170570316125,7.798737113922007
861.0,9.361435070306037,7.291894127377999
862.0,9.603662067017693,7.499900643547378
863.0,11.045782646412071,8.428579354031754
864.0,11.40385523210071,8.555369787568843
865.0,11.120259638080253,8.0764948859166
866.0,9.12970102281668,6.983949645948073
867.0,10.171066089693156,7.96168371361133
868.0,10.020613690007867,7.753422501966955
869.0,9.040440597954365,6.962077104642014
870.0,11.210070810385524,6.159087332808811
871.0,10.77970102281668,5.719433516915814
872.0,10.99032258064516,6.083870967741936
873.0,7.676140833988985,5.449645948072384
874.0,9.202989771833202,5.256274586939417
875.0,9.290204563335955,4.8017740062193255
876.0,10.453973249409913,5.244435390206436
877.0,8.465696302124313,4.246008017683863
878.0,8.637096774193548,4.714900153609831
879.0,7.191935483870967,4.9848694316436255
880.0,9.409697088906373,5.707376081825334
881.0,7.476455546813532,4.650432730133753
882.0,7.037824547600314,4.013119590873329
883.0,7.508025177025964,3.794059795436664
884.0,6.4975609756097565,3.6833202202989774
885.0,9.82360346184107,4.009952793076318
886.0,8.847678992918961,4.312608182533438
887.0,8.843442474126974,4.232555125179044
888.0,9.00236639835381,4.109422723879844
889.0,9.276989650789808,3.9833403941979864
890.0,10.685269018943291,5.959412132582864
891.0,20.82650547721358,7.349493635134863
892.0,56.04848847061672,17.98037130061127
893.0,38.489183259698606,13.848181323004297
894.0,22.554416570840644,11.519743690613083
895.0,15.616205981272856,8.828746653294253
896.0,22.5332013383941,8.623893389589693
897.0,25.899022142295156,15.05400322205987
898.0,21.121108238732155,14.392540556741974
899.0,17.653001011576936,15.157717957363905
900.0,17.839941366003522,10.391454984826346
901.0,15.277132741373496,9.606691394102882
902.0,16.741634820726087,7.37415608257465
903.0,16.363156120040465,5.225019669551534
904.0,15.809092952680679,5.357629912704657
905.0,16.55239593870593,6.421902513956015
906.0,14.862680304222398,5.584991195534075
