time,emg_right_hand,emg_left_hand
0.0,8.880952380952381,6.976190476190476
1.0,7.480642663569492,5.740030971738289
2.0,7.7229965156794425,6.378380620540899
3.0,8.15691056910569,6.592837785520713
4.0,9.4322635536933,6.586932011748582
5.0,8.886254664711473,11.193235591127747
6.0,7.802631842629646,11.407479047462214
7.0,8.875095080390306,17.29606617682295
8.0,12.268389397000817,23.11616841492603
9.0,11.124067166617438,15.433499489855041
10.0,9.10308674729658,11.658340543323984
11.0,10.25259363621393,10.25415151697332
12.0,10.090406748028471,10.640194891928557
13.0,12.664007465280955,8.099798468780957
14.0,11.795196453897715,9.669065014846582
15.0,9.458573836704954,9.449402688383167
16.0,9.549277630316181,10.049175319828349
17.0,9.271692956742267,9.01791830964978
18.0,10.681835763148772,9.102174096190893
19.0,9.62598227954201,7.40693012974498
20.0,8.864918755821359,8.666092916957462
21.0,10.18583879419332,8.62667165049102
22.0,10.30529391929864,7.156689520812259
23.0,8.909105554817593,7.830474351245398
24.0,9.894260918729842,8.981673427542821
25.0,8.847639994414187,7.968600754084625
26.0,8.910110319787739,6.799622957687474
27.0,8.743954039666077,7.158962503533708
28.0,9.049643595567881,5.9986570684482965
29.0,6.991134804607075,5.826785398440202
30.0,6.8062713849194,5.116007812928842
31.0,7.2181581980861065,6.774742466104331
32.0,8.535084990759884,6.591824785464659
33.0,7.472343695680017,7.234450598712396
34.0,7.807261048711655,6.251937548847142
35.0,8.369378058800415,6.378416032579573
36.0,8.046571166601174,8.531251860584192
37.0,8.163681793464239,10.12827214740193
38.0,8.588710669730926,11.39495191258132
39.0,9.0892862104415,12.558459059209245
40.0,9.639486260454003,13.611409796893668
41.0,10.245967741935484,14.56048387096774
42.0,10.852449223416965,15.509557945041816
43.0,11.458930704898446,16.45863201911589
44.0,12.065412186379927,17.407706093189965
45.0,12.67189366786141,18.35678016726404
46.0,13.278375149342892,19.30585424133811
47.0,13.884856630824373,20.254928315412187
48.0,14.491338112305854,21.204002389486263
49.0,13.855764635603345,24.708393070489844
50.0,9.295937873357229,22.935603345280764
51.0,7.780436081242533,19.504868578255675
52.0,9.025806451612903,13.8
53.0,12.270967741935484,13.51290322580645
54.0,12.580645161290324,16.938709677419354
55.0,13.229032258064516,18.55483870967742
56.0,14.2,16.758064516129032
57.0,14.880645161290321,15.983870967741936
58.0,12.179569892473117,16.204301075268816
59.0,10.479960899315737,13.822678396871943
60.0,9.459335288367544,14.327468230694038
61.0,9.753861192570868,16.00566959921799
62.0,11.957575757575757,15.451221896383187
63.0,17.745454545454546,14.481524926686216
64.0,16.98709677419355,13.96774193548387
65.0,18.390681003584227,22.11111111111111
66.0,16.3504724666015,18.607461713913327
67.0,17.00713587487781,13.077745193874225
68.0,12.26001955034213,15.55822743564679
69.0,8.710654936461388,15.201694362984686
70.0,10.493320299771913,12.0237862495927
71.0,12.605017921146953,8.192831541218638
72.0,13.451612903225808,7.016129032258064
73.0,10.364516129032259,7.193548387096774
74.0,11.493548387096775,6.919354838709678
75.0,11.738709677419354,6.506451612903226
76.0,8.729032258064517,4.77741935483871
77.0,6.919354838709678,5.029032258064516
78.0,8.606451612903225,5.1258064516129025
79.0,18.55483870967742,6.116129032258064
80.0,18.73548387096774,6.106451612903225
81.0,19.994982078853045,7.189605734767024
82.0,19.923297491039424,7.018996415770609
83.0,17.642293906810036,6.830465949820788
84.0,15.956630824372759,6.603942652329749
85.0,19.699472907442548,5.450263546278727
86.0,16.843643263757116,5.433017077798862
87.0,13.27020872865275,6.426185958254269
88.0,12.27381404174573,6.771157495256166
89.0,11.83529411764706,7.566223908918406
90.0,10.90967741935484,6.758064516129032
91.0,10.541935483870969,6.129032258064516
92.0,9.44516129032258,8.158064516129032
93.0,10.487775891341258,6.517996604414262
94.0,14.520769666100735,6.996095076400679
95.0,13.45823429541596,6.2129220901716655
96.0,11.020466121315017,6.3491296667867125
97.0,10.536039512270413,5.592306768877227
98.0,11.791788856304985,6.380873248615184
99.0,13.01368523949169,7.292342782665363
100.0,12.329423264907135,8.432909742587162
101.0,13.767350928641251,8.39622026718801
102.0,15.90948191593353,5.923916585206908
103.0,18.480547409579668,10.847442163571195
104.0,14.531182795698925,16.182078853046598
105.0,12.009318996415772,11.37956989247312
106.0,12.988530465949822,9.450342130987291
107.0,10.221505376344087,6.3891495601173025
108.0,13.394623655913978,5.7316715542522
109.0,10.372238514173997,5.10615835777126
110.0,15.641316389703487,8.811143695014664
111.0,13.065819485174323,6.658064516129032
112.0,11.723590746171391,6.63010752688172
113.0,11.115021179537308,6.944086021505376
114.0,14.934050179211468,7.417204301075269
115.0,16.167741935483868,7.380645161290323
116.0,14.622580645161289,8.05483870967742
117.0,15.919354838709676,6.503225806451613
118.0,12.174193548387095,7.212903225806452
119.0,10.796774193548387,7.248387096774193
120.0,15.851612903225806,6.548387096774194
121.0,14.270967741935484,6.07741935483871
122.0,15.119354838709677,5.951612903225806
123.0,16.454838709677418,5.429032258064516
124.0,12.096774193548386,6.261290322580645
125.0,13.110752688172044,5.616129032258064
126.0,14.280156402737047,5.765982404692082
127.0,12.456207233626587,5.989442815249267
128.0,10.487781036168133,6.785043988269795
129.0,13.146757901596612,6.317432388400131
130.0,12.817269468882373,6.315607689801238
131.0,9.928576083414793,6.2108830237862485
132.0,15.783642880417075,6.308667318344737
133.0,13.685369827305312,5.768849788204626
134.0,11.4950146627566,5.473313782991202
135.0,8.51639058413252,6.2902353966870095
136.0,7.138917258272097,5.873151492506331
137.0,5.902579409331097,6.062157141602002
138.0,7.828785864419773,5.206731412582876
139.0,6.907096465236,5.223027764663174
140.0,7.010466902439895,5.70467616904226
141.0,5.586646661665416,5.7870539063337265
142.0,5.101494885916601,6.632123187591323
143.0,5.149413660035218,6.732419167509647
144.0,5.988591660110149,6.579914577947623
145.0,7.48853546139148,8.006931175302537
146.0,5.998876025626615,6.809149151399348
147.0,7.733505676070585,6.910082050129256
148.0,7.783747330560862,5.4609418905248965
149.0,8.857386384923757,5.453823386160129
150.0,7.910175714660372,7.989434640890188
151.0,7.78494623655914,6.963096174740549
152.0,6.66692892735379,6.305271439811172
153.0,6.881284345476613,6.147311218048415
154.0,7.604620667361962,5.849846085214683
155.0,8.424497587811587,6.588022963929135
156.0,7.413665001616257,5.816828161744269
157.0,6.822807923235164,5.851962467968908
158.0,7.032416357573714,5.41097748304672
159.0,6.956265220486307,5.712746806039489
160.0,6.43982615863025,6.710808886890712
161.0,7.025735266569256,5.84132104454685
162.0,7.063305983290247,6.388355625491739
163.0,5.848089243565247,4.969139410288112
164.0,6.535823873215691,4.526044359521936
165.0,7.375297853208947,4.442526507062306
166.0,8.558719819327653,5.42984352359867
167.0,8.318314770330213,6.1324743206707595
168.0,7.941799474258808,5.588894610412185
169.0,9.17186962245788,5.812398221506596
170.0,7.513550861582992,5.364499661500741
171.0,9.98311250286439,5.286004427936252
172.0,7.670475981364678,4.96933379686385
173.0,6.074101277932723,4.652869663408882
174.0,6.767658290879339,5.068745409348853
175.0,6.591460931434949,5.668204333313293
176.0,7.376375627007797,5.79594323668025
177.0,7.459094825971301,5.89402420291484
178.0,7.9691787493911805,6.44048368363868
179.0,8.856363568243978,5.49282248698063
180.0,6.815278558315537,5.34278221123225
181.0,6.800768049155145,4.456374807987711
182.0,7.273655913978494,5.32726574500768
183.0,8.515860215053763,5.612173579109063
184.0,9.392204301075267,5.093586789554531
185.0,8.49554156831891,5.597058933722978
186.0,6.292394440073432,6.404289835525082
187.0,7.396197220036717,6.91182233711738
188.0,7.326362818927729,7.255834363643175
189.0,8.143020119141283,7.743174121056397
190.0,6.737442396313364,8.005890758403886
191.0,7.000307219662059,7.169535240953095
192.0,6.497081413210445,6.857425070553353
193.0,6.554336667790641,6.504459041589666
194.0,6.354666366940167,6.897875688434303
195.0,5.490236409276536,6.426357199055861
196.0,5.431370124761155,6.010797647146978
197.0,6.671259975272564,6.827024090517402
198.0,6.854119366078454,6.032709527556104
199.0,6.010222546925931,6.382208422314638
200.0,6.185694400013833,7.6199813823732
201.0,9.714967015675118,7.123354746486139
202.0,10.204179938042671,7.399929619231395
203.0,9.056381677837042,6.244792654207507
204.0,8.296404843639213,6.097711039928301
205.0,7.4013041587923105,5.696970845498831
206.0,10.628661520780891,5.574526035690107
207.0,12.62715896744221,5.2932823798284065
208.0,14.180465848169359,5.109096089353349
209.0,11.350657786397818,4.686334039955982
210.0,9.247909538360199,4.797928924739896
211.0,8.555111338810313,4.714857460009601
212.0,8.627402059574127,4.32747481295411
213.0,8.463274137349668,4.627996328350381
214.0,7.781372934697089,5.402586077704095
215.0,7.400673339066474,4.926433699017089
216.0,7.548487731689019,5.938039823544736
217.0,7.130609307379109,6.291197799449861
218.0,7.484838108481823,5.274657950201836
219.0,6.988344647137394,5.824236546941613
220.0,6.704261431211462,6.327118364957093
221.0,5.934349441018791,5.671033612061551
222.0,10.636613857297077,6.600662360712129
223.0,9.140512480036385,6.112034106087497
224.0,7.303930512244786,6.345047063159518
225.0,6.761013249828136,5.863554216080152
226.0,7.541088843639481,5.198338870431893
227.0,7.417307375624393,5.788980607521218
228.0,9.127490539882356,5.495712037765539
229.0,7.055680753812146,5.798654432771956
230.0,7.443172792327001,5.631654124332476
231.0,8.171143831253982,7.437955307642241
232.0,7.718852796822899,10.544548070815614
233.0,7.671227562988308,7.660790807457962
234.0,9.616719772277564,10.30624650936253
235.0,10.05816319062344,16.105129548937754
236.0,8.369758227884498,14.344539597442914
237.0,9.422379113942249,9.368640766463392
238.0,10.522142295155671,6.79445505975797
239.0,9.096324603799033,10.454447191937357
240.0,10.266513056835638,11.051190476190477
241.0,8.473638117717583,8.496690832115695
242.0,9.419598366490577,9.283878460904425
243.0,9.316942040388145,8.358529092203364
244.0,8.829969251894855,7.349155233059136
245.0,9.822434702752343,6.234485450630951
246.0,8.855041112194424,6.992301733970077
247.0,8.585982209838175,7.072225199156932
248.0,8.616339799235522,7.817218590361876
249.0,9.37036726714146,7.872838988968021
250.0,11.326002492131524,10.798288807966227
251.0,9.110581891227053,9.997531500757308
252.0,10.368501391082035,9.952990020731956
253.0,17.345541018121665,9.078645548000384
254.0,20.172438851471107,6.783859151601086
255.0,30.469239631336404,5.9029185867895535
256.0,24.090668202764974,5.7071044546850995
257.0,15.962672811059909,5.146697388632873
258.0,10.993777015682491,5.573643410852713
259.0,9.393514450041081,7.237836244775479
260.0,7.906095273818455,7.0145348837209305
261.0,7.937014610795556,5.997186796699175
262.0,7.349958918301003,5.734883720930233
263.0,8.780472295774292,8.119660402905604
264.0,8.877661575672665,9.374641047021337
265.0,8.49546994762628,7.963389540764982
266.0,8.182066771048163,6.432539624453152
267.0,9.118068715785219,5.954787477357144
268.0,8.402314864430394,4.493766298717537
269.0,7.594136338962789,4.26677749576767
270.0,7.34088269454123,4.460792027275112
271.0,10.421048641951428,5.284070146456475
272.0,9.080724013756052,5.82252662468753
273.0,7.413633896278948,6.0045812846939945
274.0,7.651573607687635,5.5267745507805515
275.0,9.253206158682527,5.587504018861858
276.0,11.069738863287249,5.792626728110599
277.0,13.718586789554532,5.2973886328725035
278.0,16.66236559139785,6.666513056835637
279.0,16.020122887864822,5.451920122887865
280.0,13.538863287250383,5.990168970814132
281.0,11.230534419319117,5.935069481656129
282.0,10.12663621044634,7.106460783314295
283.0,8.580951858173602,7.276686331861711
284.0,7.860555731267311,6.452372239401313
285.0,9.105428796223446,6.302142608822937
286.0,8.863136515836276,6.618721753609134
287.0,8.751395165864636,6.639415951548862
288.0,7.146429290249392,6.489652901030135
289.0,7.8977622454394085,7.3970687793899685
290.0,8.684815106215577,8.096830392267055
291.0,7.791472781087258,7.734320557491288
292.0,8.413532651455547,7.076950095537821
293.0,6.758532838784609,5.893409763590723
294.0,6.966599228204263,6.401858304297328
295.0,6.4268480011989055,5.714754036941291
296.0,6.8985238469896215,6.953767187441459
297.0,9.857355018197058,7.106130191084357
298.0,9.189149203677225,7.290579613544502
299.0,9.836041763054004,7.60076168868001
300.0,8.711097199386955,6.512081417566936
301.0,9.435940866749789,7.114878893939513
302.0,8.040050953504926,6.930800644411974
303.0,8.090757184069536,6.236525420553745
304.0,8.800052452137423,5.043078191150575
305.0,8.747390506163125,3.8944737926641935
306.0,7.467753175227605,3.5921171930613314
307.0,6.504381713895373,3.85953875228389
308.0,6.6958769309052,4.571154112569955
309.0,6.110251604713024,6.169841415057597
310.0,6.125542796849038,4.889798756309286
311.0,6.096488756335425,4.067019193822846
312.0,5.3299576636319355,4.27590948259713
313.0,5.536733355812821,4.532525945075118
314.0,6.692973286875725,5.277415608257465
315.0,7.078429995129444,5.3937825484245625
316.0,7.015424674984077,5.1347945000187325
317.0,7.783826008767,5.075845790715972
318.0,10.238003446854744,4.942759731744783
319.0,11.580299539170507,5.875729646697389
320.0,10.555613010395458,5.586645768585003
321.0,10.0153252598864,5.332154467188225
322.0,8.69862587598119,8.64050681659962
323.0,7.847008790525158,9.797211933645432
324.0,8.916723083209826,10.328104674252188
325.0,7.36470703041614,9.220151727827426
326.0,7.747967479674796,7.310366790303847
327.0,8.261080514030947,7.217339178000075
328.0,8.524933498182907,6.1509122925330635
329.0,8.413360308718294,7.584391742534937
330.0,7.220763553257653,7.004705706043236
331.0,7.504402232962422,8.254123112659698
332.0,7.543778801843317,7.278648233486943
333.0,7.94431643625192,6.774116743471582
334.0,7.425091791240492,6.727763103667902
335.0,8.021348019931812,7.451420890937019
336.0,8.930028848675583,7.3164362519201225
337.0,8.244565583904686,7.395564047806377
338.0,8.620362669064479,7.849087707466936
339.0,7.343994230264883,7.21956839384062
340.0,9.676245738263834,8.085236596605597
341.0,8.048203514293206,8.041811846689896
342.0,8.522134801993182,6.947341800606946
343.0,7.938102731257728,5.737111760518527
344.0,7.111551276320823,5.378835235812438
345.0,9.975207281785604,5.285865390563669
346.0,9.443501990480199,5.1069518250642805
347.0,8.64496481263173,5.3584288929375194
348.0,9.04483263673061,5.787125352766763
349.0,7.898867574036366,5.244971957275033
350.0,8.86725252741757,5.3018254563640905
351.0,7.450807388258214,5.7170207185942825
352.0,7.890974485781723,5.852066239556405
353.0,8.174984077029709,5.684163201079015
354.0,7.653160241279831,5.64162077104642
355.0,7.008377355662957,5.624727436214454
356.0,9.044157206549023,4.997886928178037
357.0,7.937892922708029,5.499336855119703
358.0,6.556727552968381,4.964944807630479
359.0,7.330338224800101,5.13690648271824
360.0,7.259658359711879,5.243107619239304
361.0,7.569748534694649,5.285666712845458
362.0,8.96111344909398,5.642833356422729
363.0,8.168067888052153,7.185650593833127
364.0,5.791744408227492,6.175830804390993
365.0,8.225442096586864,7.982155033531902
366.0,8.48731782248698,9.299142032894983
367.0,8.006050728710052,9.147604061294068
368.0,9.885129819040126,8.770653029110937
369.0,8.366000036594514,8.442962874865056
370.0,7.2816559322757515,6.757080515773542
371.0,6.6975844570898815,5.954287700845072
372.0,9.530201692409165,5.04553769104297
373.0,7.91443505475672,5.400038162850817
374.0,6.908348167181169,5.016080239572087
375.0,6.768306188045269,5.373247493057933
376.0,10.030775551030615,5.0217554388597145
377.0,8.66477333619119,4.420247919122637
378.0,8.4956164999438,6.043591472781086
379.0,6.840858298198242,5.40598999924197
380.0,6.52374112691936,5.430656008949972
381.0,7.394078049129007,5.950454076933868
382.0,6.376839331784165,5.171463597606719
383.0,6.491724150549832,4.565275465207765
384.0,5.681042298902252,5.155052264808362
385.0,6.781119103817766,4.528745644599303
386.0,5.719355775354989,4.599620658648982
387.0,6.5528230489678165,4.964729684163201
388.0,8.256573376793675,5.329110936270653
389.0,7.90824060544753,5.288211382113822
390.0,9.429730058821326,5.236552583267768
391.0,10.541861488891387,5.08494623655914
392.0,8.702746244052303,4.861395226855494
393.0,9.379483721104492,5.204199917575212
394.0,7.665932336742722,6.935798583792289
395.0,8.892930201191412,9.33266644187179
396.0,7.543070697988085,7.695931212768349
397.0,7.751865797459817,7.285023041474654
398.0,7.04409726124911,8.0752688172043
399.0,7.146204669634308,6.756268335376527
400.0,7.341919539118228,6.940346149255084
401.0,6.886397557577547,6.101125455579923
402.0,6.485853606258708,6.565998642517772
403.0,7.3539099060479405,6.557960918801128
404.0,6.976958525345621,6.311059907834101
405.0,7.814132104454685,6.135176651305684
406.0,7.000861713686261,6.116874601925742
407.0,7.401352515829306,6.261279082836911
408.0,6.510891311678094,5.475493612078978
409.0,6.933633059832902,5.085673073320595
410.0,8.145003933910306,5.5919916825896365
411.0,7.3397081413210445,5.32784178187404
412.0,6.448079877112136,5.618356374807988
413.0,8.42242703533026,5.803533026113671
414.0,8.049923195084485,6.057296466973886
415.0,7.782258064516129,5.916513056835637
416.0,7.914938556067588,5.88252688172043
417.0,8.292549923195082,6.213440860215053
418.0,7.168049155145929,6.868817204301076
419.0,6.360522273425499,6.086098310291858
420.0,9.025096474467048,6.172390506163126
421.0,7.684341185470583,6.809197878737977
422.0,10.610162144194586,6.7279284324565465
423.0,9.371382915415264,7.728806766151468
424.0,8.724093915464929,6.469626117330726
425.0,9.02479191226378,6.362912156610581
426.0,9.678562497767299,5.474779409137998
427.0,9.833904904797627,6.120262208409245
428.0,8.064187475440288,6.67480084306791
429.0,8.888112620489617,6.324896206630054
430.0,8.716481559414243,6.760472609441559
431.0,8.03307107264621,7.106573376793676
432.0,7.363386534787006,7.199062418043535
433.0,5.966370686748341,6.953160241279832
434.0,6.301832078228616,5.96123787044322
435.0,7.620962122063617,6.723706492825297
436.0,6.55378404705706,6.0326036866359445
437.0,7.0750487055561795,6.905107526881721
438.0,6.887003109662433,6.3905061631261475
439.0,7.8164362519201225,6.714922633097299
440.0,7.754767524633771,7.466617961110487
441.0,7.400809261548837,7.799173661011071
442.0,7.833202202989772,6.845991985801328
443.0,6.170889063729347,5.882634073152434
444.0,7.489850511408339,8.846116407150568
445.0,9.162463002510208,8.653398018494169
446.0,7.7451474802498534,7.2816877564338816
447.0,7.475398662383365,6.23610070636126
448.0,7.239046695471777,6.122397324069693
449.0,9.4744369890382,7.3094096694905435
450.0,8.336680860110498,8.433890702640817
451.0,8.699098119477604,14.287087886954318
452.0,9.859870891067715,12.560622734080733
453.0,9.489180134754942,8.661349919361372
454.0,9.042593139574091,7.251949921278229
455.0,7.638648860821477,6.745378504904972
456.0,8.907846560943373,6.7399060566535365
457.0,9.304191161030676,6.343970487395367
458.0,10.108016115527139,5.750742128040721
459.0,9.533193925659114,5.7345876538821114
460.0,9.008532446700524,5.396011372181024
461.0,7.609542542430032,5.065186767075044
462.0,11.696860364917011,5.3221479150275375
463.0,11.77879997002735,8.280664830841857
464.0,12.228129331984563,9.775767112509834
465.0,10.326731857180324,21.618568056648307
466.0,9.694087894795999,22.025105840920162
467.0,12.165400322205986,23.051339402794948
468.0,11.557036079577385,15.279875238844554
469.0,11.395276497695853,11.319009216589862
470.0,10.23208946836012,7.5133303360683374
471.0,9.861590049080213,5.984391742534937
472.0,6.986809028040982,4.413613725731084
473.0,7.218808208149598,4.463147951622052
474.0,6.864213309424917,5.723912685488445
475.0,8.029630164509769,5.429694531646849
476.0,7.097240337959054,6.0456891226290885
477.0,8.380203064703458,5.117118129706643
478.0,7.895058259338354,5.669101944475667
479.0,7.259488217001985,5.779712262560414
480.0,7.365381589299764,5.92987149226331
481.0,6.781589299763965,6.006713873590348
482.0,7.870441347270615,5.443065078116218
483.0,8.645122887864824,9.171927803379415
484.0,8.41847158218126,13.289170506912441
485.0,8.972207860327451,15.724030572102956
486.0,9.353845865647596,13.17007980218051
487.0,8.093435989659437,8.81637630662021
488.0,8.805316398786108,6.393904312315013
489.0,8.166867108763253,6.54718257090405
490.0,7.93079783447604,7.9932608369862495
491.0,7.290719430058533,8.711053495416202
492.0,6.693786150906528,7.934018093105426
493.0,8.225728638002439,16.77597836205232
494.0,9.404481866245174,17.93711753454311
495.0,9.506273191187104,15.31533296081994
496.0,9.792756115858234,11.530867472965802
497.0,11.167424478070739,10.447573783689824
498.0,9.174534051631374,7.549478136084543
499.0,7.7114945112584765,5.869101944475666
500.0,8.058804269882803,10.185188631652686
501.0,15.80242534501221,20.198888572317294
502.0,13.283552159816956,20.908301988389084
503.0,10.924034144424606,18.68840598651405
504.0,8.394428746559461,14.44289730969328
505.0,9.673958559326241,9.685289615086699
506.0,9.008497769041561,7.186468568361603
507.0,8.409707392004794,6.224659997752051
508.0,8.244417158296542,5.613035532402264
509.0,8.439028855645967,5.38524280460359
510.0,9.142458959687659,5.541470733537043
511.0,8.351795962928014,5.366486743637129
512.0,8.02259537009688,4.590309424045907
513.0,7.7763103667903035,6.165872391442809
514.0,7.449215091229253,6.0572065490240155
515.0,9.414746543778802,6.070583717357911
516.0,11.218938968191525,6.199257240268255
517.0,12.346015510846353,5.882132554044434
518.0,9.714529242066615,6.442902101832078
519.0,10.308493499681541,6.775598516353827
520.0,8.854707579333859,6.484957476302873
521.0,8.386834513506425,6.250346558765127
522.0,8.599003409388931,8.008729534299952
523.0,7.552766850249148,9.194293956764453
524.0,7.064261361507624,8.398119216215203
525.0,5.915892997639653,6.730212431156569
526.0,7.098701809598742,6.506648308418567
527.0,8.100491738788357,5.917761605035405
528.0,8.20306845003934,6.23831628638867
529.0,8.084618410700235,7.239142407553108
530.0,7.9455912105204,6.70785939080589
531.0,8.295661458918737,6.601264471170057
532.0,7.8783578734404855,6.435171968079128
533.0,9.019017646397662,8.903473080813757
534.0,11.963837997826982,8.214709077966354
535.0,12.567172455134688,7.6811944275267425
536.0,9.81724403226242,6.54465737514518
537.0,9.092729018491557,6.545342062867633
538.0,8.313982375250742,6.373673926388324
539.0,7.05458775575695,6.0485787488147835
540.0,8.441141242158569,6.207701080992575
541.0,8.259401757434802,6.014542499200249
542.0,7.775806307513625,5.366358582408937
543.0,8.29693904312315,5.551504252369712
544.0,7.327934509759844,7.224453935783598
545.0,7.3433535648720545,7.864784009591248
546.0,8.535424862313139,7.077399685287176
547.0,7.875767112509836,6.281510621557828
548.0,9.158969315499606,7.504248623131392
549.0,8.864162077104641,7.2747049567269855
550.0,6.789516129032258,6.17220692368214
551.0,7.406451612903225,4.894571203776554
552.0,9.226435877261999,4.612509834775768
553.0,8.242868382600875,5.11630324828594
554.0,9.723200704357273,4.643328275448653
555.0,8.139019707017347,5.494724813607583
556.0,9.138323779551158,5.708928103105915
557.0,7.157899666554268,5.868532464126485
558.0,8.117450529879857,6.058904534495994
559.0,8.80841804527787,5.838131222701145
560.0,7.989692893606677,5.926976517648576
561.0,6.400432599439059,5.8399634751893545
562.0,6.3616471190968475,6.524614385303643
563.0,7.127453074069911,6.320000187329063
564.0,6.985731145329886,6.314320370162227
565.0,8.16463976621333,6.724498894758533
566.0,9.124648758008318,7.127473680266756
567.0,9.450076804915515,6.299078341013825
568.0,9.057987711213517,7.106144393241166
569.0,10.346432318009816,9.267582705780974
570.0,10.512211044921509,7.767111573189465
571.0,10.068487505151548,8.257090405005432
572.0,8.134858191899891,9.188453036604098
573.0,9.163051215765613,8.621108238732155
574.0,7.579034131355138,7.606534037690606
575.0,8.856708253718482,6.734030197444831
576.0,13.137480798771122,6.9943164362519195
577.0,12.943164362519202,6.9
578.0,10.117511520737327,7.498387096774193
579.0,8.824259636337656,7.145390811988712
580.0,9.334179385438695,7.506261495687511
581.0,10.153514423902141,5.97025824400351
582.0,8.061473033763667,6.447955542892692
583.0,6.807046883672138,6.366422790366581
584.0,7.252021280581468,7.116694766026001
585.0,7.144500018732906,6.761494511258476
586.0,7.36633603087183,8.327137424600052
587.0,7.7003147128245475,11.90440972612491
588.0,9.737171792948237,13.459825670703388
589.0,12.953455328117744,10.437670131818669
590.0,11.110195405994356,8.947060872360947
591.0,10.718079607009766,7.073559940507775
592.0,9.179378816829642,7.864531551006218
593.0,10.756195320607155,10.281245877671509
594.0,11.376561561993284,10.182097593213634
595.0,10.852246162585942,10.711652651838918
596.0,8.886390587193837,9.121758662662181
597.0,7.66833389532052,8.005694803491814
598.0,9.529099609397123,8.046072493733188
599.0,9.43544074171853,7.54838186898641
600.0,7.3085936989473845,7.182530824343717
601.0,7.876484103604298,6.761210337427562
602.0,8.176637016396956,7.384932470051311
603.0,6.1323142632347984,6.9963470832865005
604.0,5.962845589446141,6.623776370921998
605.0,6.6925051820446395,5.65752903818289
606.0,8.322903896705883,5.626095548277313
607.0,8.584871827713027,5.228187708948143
608.0,7.934019219090487,5.701782588504269
609.0,7.5583717357910905,5.6620583717357915
610.0,8.761797592255206,6.235094487907691
611.0,9.231372738655047,7.269246318548278
612.0,8.677776587003894,7.658985303817243
613.0,7.60922286320709,6.7634778903785175
614.0,7.088302563445739,6.249025671051909
615.0,7.866247049567269,6.616050354051927
616.0,7.106815031283953,7.378217376643812
617.0,7.39620845978045,6.064089018770371
618.0,9.669701397474803,6.988850174216028
619.0,8.354126859240942,6.574283466336968
620.0,7.121201903263272,7.215544565583905
621.0,7.273484529669002,6.765258082813386
622.0,9.792118608920521,7.642344863219289
623.0,8.457516818228948,7.823591786448354
624.0,8.709010179374111,7.451371030911038
625.0,8.178247175034176,7.458085950058943
626.0,7.546737991117988,6.47097845890044
627.0,7.423522605390023,5.311910120387239
628.0,6.605283463723072,5.734296074018504
629.0,5.971996570571214,5.759889972493124
630.0,6.614871313647226,5.214121300359933
631.0,6.058944962721516,6.659484470420741
632.0,6.459233449477352,6.709870368288936
633.0,6.232304896781686,7.396025813944775
634.0,5.387696227192686,7.216964519875614
635.0,5.5223296242179005,7.14467423476078
636.0,7.4274474541980435,7.571953092802818
637.0,7.289423401146454,7.155913978494624
638.0,7.965041783093857,7.121458936162612
639.0,7.57084654438871,6.8026649519522735
640.0,11.607348265637839,7.626370878433894
641.0,11.922337727288964,8.243292966098668
642.0,10.742893040333254,7.726578857257868
643.0,8.405717282979282,7.374002472743621
644.0,7.852384698962197,7.157300213555131
645.0,8.091783747330561,6.630186205087858
646.0,5.78552321007081,6.256490952006294
647.0,7.485601888276948,5.718725413060582
648.0,6.814173316848375,5.302133678018808
649.0,8.486762065080729,5.624114979093205
650.0,7.214840513264204,5.658172753118593
651.0,8.15433213704123,5.6784274465829
652.0,7.615493594653019,5.912852777654344
653.0,8.501295184423284,5.924168324311044
654.0,6.718032295530328,7.854932374208534
655.0,7.339267918024802,6.983799782698287
656.0,6.467588325652842,6.264362519201228
657.0,6.473425499231951,5.923809523809523
658.0,7.326574500768048,5.5579109062980026
659.0,8.20168970814132,5.633794162826421
660.0,7.586328725038403,5.643241167434716
661.0,9.441590798396462,5.816290135251583
662.0,9.27312098059358,6.694791729291207
663.0,8.510216404275283,6.618133191834543
664.0,7.342665805824279,6.2994659814779475
665.0,7.61193085727878,8.169271411929637
666.0,8.271740408969837,7.349387869615487
667.0,8.358547825109587,6.51183919673298
668.0,6.999793938031546,7.191993555880259
669.0,6.680004495897492,6.399760218800344
670.0,7.884298078003821,8.175647221910006
671.0,6.9840845228728785,7.905368850923532
672.0,9.221782623356187,6.919246187853583
673.0,8.488115844292084,7.327200179835899
674.0,7.994486600744262,8.110104573181623
675.0,7.283533622952776,6.9139232543327465
676.0,7.529266811476388,6.508574530392179
677.0,7.04315425546282,6.003697178650063
678.0,6.334557158453376,6.354767176114586
679.0,8.343340451837697,6.709945299913828
680.0,6.9031218388220745,8.40900490802143
681.0,6.965673822636844,10.247244389494586
682.0,7.037911655614252,8.471379865872391
683.0,6.560814506762579,8.0225562923832
684.0,9.056670787906036,7.433826945412311
685.0,7.622421415458394,6.751110861339028
686.0,6.894983327713462,6.506987374021206
687.0,7.222865385335881,6.5827619796935295
688.0,7.818777865198007,6.581132216852122
689.0,7.3495148177288225,6.638087744932749
690.0,7.5494885916601095,6.07081038552321
691.0,9.289299763965381,6.45633359559402
692.0,9.252274349075073,6.409593251971529
693.0,8.239677319155572,6.317849715042001
694.0,7.696854788610045,5.799247438166162
695.0,8.13021338958433,5.806576905550429
696.0,7.355092083125311,6.074244954966964
697.0,6.810865085609381,5.416681652991645
698.0,7.31662920085422,5.553438424937244
699.0,6.8663594470046085,5.498070510659024
700.0,6.160008991794987,5.468311415833052
701.0,8.821171930613316,5.728395339252931
702.0,8.215885504477164,5.342692293282379
703.0,7.9144692967667005,5.405713536398037
704.0,8.459831029185867,6.163517665130568
705.0,10.308770746693641,5.360496047356786
706.0,17.3095313026863,4.697145105091604
707.0,15.549542917088157,4.8493406017009475
708.0,15.12346577498033,4.966144955228353
709.0,11.215016297628413,5.309205350118017
710.0,10.170506912442395,5.603686635944699
711.0,8.528650019647769,6.228664308934376
712.0,8.702211267102491,5.602329153717001
713.0,9.115258344202775,5.689872380987232
714.0,8.715463273483877,6.120281812613432
715.0,9.658476465806347,6.542565083779655
716.0,8.002978096440486,6.861054985000606
717.0,8.450759902519184,6.6484478262422755
718.0,8.52908791389753,6.407562289929224
719.0,7.529801909067457,6.296040708113239
720.0,7.522224431744494,6.737265226250278
721.0,7.037609911724781,6.374392981788733
722.0,8.826043350826986,5.815835357928199
723.0,8.093005132816305,5.763500805514967
724.0,10.083481323292496,7.1878086246300255
725.0,10.362935071747032,7.238616012888239
726.0,9.770177213292868,8.560168221497882
727.0,8.61718931475029,8.927999138286314
728.0,7.711820463826758,8.165209246562512
729.0,7.32719268667341,6.601094001723427
730.0,8.151223258776366,6.317575212618485
731.0,8.082524071784496,7.154947360533512
732.0,7.268148025682378,6.6343598530294585
733.0,6.780521785498639,5.889875779049292
734.0,8.317044417898899,5.514595547841664
735.0,8.069981781159576,4.9639195513164
736.0,7.581036374076097,5.814000538462141
737.0,5.905221862957028,5.516527651076531
738.0,5.721025378295792,6.085649461145774
739.0,6.807427989401532,6.3024789298369885
740.0,7.441973559591988,6.944187701977759
741.0,7.993213373029668,6.6284274465829
742.0,6.923317937498312,8.667773912119145
743.0,7.63617472312329,10.003007633441461
744.0,7.638810399463978,7.705751307164769
745.0,5.648191941872069,6.817139446803417
746.0,7.590225003194099,6.893650368562999
747.0,8.720840275003816,6.863977033219344
748.0,7.88922198081988,7.183908639497536
749.0,8.082270405263653,8.461421686590478
750.0,6.973466580930946,8.018174186403744
751.0,8.76576554852999,9.96150644804058
752.0,20.690544064587577,10.352527417568677
753.0,24.522691387132497,7.892085521380345
754.0,16.96539670631944,7.33201425356339
755.0,12.542759797092131,8.275818954738684
756.0,11.300677695556292,7.876009398691135
757.0,8.388635922046713,7.211494946907458
758.0,6.869049143819055,6.195993249183376
759.0,6.716219995765492,6.44420817747991
760.0,8.868862686054788,6.9206447953451775
761.0,7.3441574679384125,6.25002679241239
762.0,7.011288536419819,5.647161790447612
763.0,7.965143724955629,6.0254654255898465
764.0,8.868843430369788,6.878899254430332
765.0,8.475306283016748,6.2271964332546546
766.0,7.189266044734181,6.586332471619647
767.0,7.603549885729272,5.75386459855382
768.0,7.36259319620846,7.1613540144618035
769.0,7.880873702746244,7.295979918324529
770.0,9.486070210932525,7.912742122812933
771.0,11.993633469342946,8.442153221232136
772.0,14.531772337683723,7.37356246727187
773.0,14.246934555938637,7.975490911055289
774.0,14.690579787804094,10.97743861052371
775.0,13.201664701889758,8.424802629228735
776.0,15.057348919111309,14.315789966655426
777.0,15.79207066575006,21.208434403897144
778.0,14.863201231492543,18.379889244959323
779.0,11.418217359217852,14.141346312187803
780.0,9.541557863333427,11.559813298272303
781.0,8.580359375558174,9.75676061872611
782.0,8.558050226842425,8.9707069624549
783.0,9.166505912192333,7.408548565712858
784.0,8.89968920801629,8.064873361197442
785.0,10.972421676847784,9.333083270817705
786.0,9.436098310291857,7.951612903225806
787.0,9.647311827956988,6.8663594470046085
788.0,10.16927803379416,7.340245775729647
789.0,8.263594470046083,8.739247311827956
790.0,9.589170506912442,9.643433179723502
791.0,9.497604277442989,8.221892354956871
792.0,10.206309819213045,7.1744062389223675
793.0,10.129268580881483,7.210090984284532
794.0,8.254342431761787,5.924553940682973
795.0,8.998129591363266,6.732358645812619
796.0,7.883597467311079,5.914649132666442
797.0,9.65017046944663,5.710243153122775
798.0,8.95532576523922,4.802510209433891
799.0,9.057671125098349,4.614791502753738
800.0,8.4485051140834,6.1584579071597165
801.0,7.752478363493312,7.447777340676632
802.0,8.841655535835178,8.976111100945968
803.0,7.641520136131594,7.042894260150403
804.0,7.635708927231807,6.417591897974494
805.0,6.6323705926481615,5.523312078019504
806.0,6.505701425356339,5.809639909977495
807.0,7.737096774193548,5.908410138248848
808.0,9.164181746656176,6.183129144655503
809.0,9.742478738151437,5.776088381851562
810.0,10.658139447753925,5.518364804615788
811.0,10.68206511558203,6.7148851672848515
812.0,8.661309055486868,6.625491738788355
813.0,8.951087074904615,14.28805372074726
814.0,6.714818948639599,14.534814017093122
815.0,6.386599088796588,12.782827936949394
816.0,6.409102624088077,9.235574921604965
817.0,5.748919546959911,9.93792106563226
818.0,8.279328847891415,13.065145293291963
819.0,9.780655769343031,11.563414503451646
820.0,9.79637627176829,10.484126606564532
821.0,50.289140142178404,9.020190761976208
822.0,32.98794162826421,11.44347158218126
823.0,26.7781490015361,14.195238095238093
824.0,19.145929339477725,10.238786482334868
825.0,14.246006144393242,10.02995391705069
826.0,8.834012074447184,10.211338548922946
827.0,8.190315436001857,7.62038723966706
828.0,8.266048655020898,6.0686421605401355
829.0,8.227634870390071,6.468390616817968
830.0,7.395753990762499,5.440568330235869
831.0,6.14375632235585,4.643211325479454
832.0,6.141306232481465,5.468035127248711
833.0,8.783758657434394,5.550266486482247
834.0,10.22508153170697,5.27041255087291
835.0,8.372391442808437,5.338578547075794
836.0,9.956164999438013,5.2460941890524895
837.0,8.893971750777416,5.341875538571054
838.0,9.337229777827734,5.425461766138398
839.0,8.434940616687273,4.406279270165973
840.0,9.654490277621669,4.967348544453186
841.0,8.6260162601626,4.883443857480049
842.0,10.028586414896406,12.865010677756548
843.0,11.401783372672437,17.522198493874342
844.0,12.02268554943614,14.496347083286501
845.0,10.951426009812558,9.943776013689833
846.0,9.49261008631949,8.50721826798163
847.0,8.827980514292335,6.972746670988304
848.0,9.442735248271998,5.837717269038515
849.0,7.81334619369128,7.014396456256922
850.0,10.360536562712106,8.101346765262743
851.0,16.368824348944376,7.046833136855643
852.0,16.873361197442215,6.200871646483049
853.0,17.73550530489765,5.596684885507091
854.0,15.59739934983746,5.577144286071517
855.0,11.96683099346265,5.984835494587932
856.0,9.091569930810227,5.488493203440234
857.0,7.1088007193435985,5.431793488441796
858.0,6.544303323217564,5.7697913154246745
859.0,6.216852122438275,5.595725150799895
860.0,7.694293956764453,5.3256659548162295
861.0,8.732512832040763,6.181794425087107
862.0,8.595406691394103,5.8114420591210525
863.0,9.589805552433404,6.334648383350192
864.0,10.349621813118784,5.888468763532346
865.0,10.240133487204554,5.8684279301532705
866.0,9.557566743602276,6.292681707012118
867.0,10.087782659950701,6.6960954524345375
868.0,9.54504340370807,6.80158075233094
869.0,7.9752688172043005,6.360637480798772
870.0,8.541910477619403,6.0511083127924845
871.0,7.015271675061623,6.91094202121959
872.0,5.770692673168292,6.2788197049262315
873.0,6.069678133819169,6.456614153538385
874.0,6.957556462286304,6.393493843844237
875.0,6.805795961185418,7.547843842493724
876.0,7.286845753250159,6.978146191600165
877.0,7.880750065565172,6.481776628826196
878.0,8.817549683588144,5.486333604306999
879.0,8.185328736365275,7.08502360781833
880.0,7.294867357954471,7.381614872359204
881.0,6.452272388654655,6.322259049082827
882.0,5.634223189943827,7.231537152580827
883.0,8.242843027830126,8.41546850127166
884.0,8.275967990255403,7.730925588539992
885.0,9.244967622567662,9.885544469741127
886.0,11.343854779025767,10.44438513809637
887.0,12.57249312328082,9.356189047261815
888.0,12.761490372593148,9.002925731432857
889.0,14.161083127924838,7.569819240524417
890.0,10.26625959625795,7.2939201481555065
891.0,8.747134518821344,7.3244482723468325
892.0,8.001831468320042,8.763990649230252
893.0,10.392192124686224,15.71981192162152
894.0,11.394395637236837,13.965994983066324
895.0,11.048777002613022,10.271334384118678
896.0,15.432447397563676,10.74186403743793
897.0,11.40097524381095,8.064051727217517
898.0,10.360625870753402,6.4874790126102955
899.0,7.998242417747294,5.527235380273639
900.0,8.64581859750652,5.606551637909478
901.0,7.76991390704819,6.003736648447825
902.0,8.999360554424321,5.601268174186403
903.0,8.402906083663773,5.981509663130068
904.0,9.255485299896403,6.229464508984389
905.0,10.998054740165877,6.169694601350686
906.0,10.198720150420879,5.830239005744467
907.0,9.268902460806839,7.092163763937499
908.0,9.632147082937982,7.413209378128504
909.0,8.452421467736272,6.871792861107263
910.0,8.448240631586467,6.5762583503018615
911.0,7.560600777372043,6.824527211942359
912.0,7.147195683938405,6.6953879584878795
913.0,5.817865572664942,5.993126896706755
914.0,6.526060282492226,6.163230115020044
915.0,6.518272076729984,6.554598928477764
916.0,6.698553819639579,6.518841557079165
917.0,10.321600347822146,7.329706207039565
918.0,9.988888293501947,7.043744864787626
919.0,9.105043225091986,6.467340942378453
920.0,10.52942253420498,7.816293359054049
921.0,8.938770406887436,8.325581395348838
922.0,8.93010752688172,8.136712749615976
923.0,8.465437788018434,7.523809523809524
924.0,13.710445468509985,7.955453149001537
925.0,11.454327867681206,7.383917407923409
926.0,11.556657021398205,6.942342728539278
927.0,12.255671060622298,6.04644018147394
928.0,11.589433072553852,6.659932840352946
929.0,10.101805067991737,6.040945776513815
930.0,8.914143344198418,5.864283840995092
931.0,11.935719905586152,6.85195758870031
932.0,9.889902963545765,6.610310591585177
933.0,9.292493724476415,6.00215990408752
934.0,10.64546008017684,6.311072084223146
935.0,10.797326814281966,7.721261848563186
936.0,8.860170094788504,6.516885841669477
937.0,8.202028033140689,7.633411663020285
938.0,9.293026305356827,6.641206599559298
939.0,8.775618599771894,5.92706589103722
940.0,8.001951707439055,5.511910207517037
941.0,6.428198513042895,5.7280243405799185
942.0,6.963161522087839,6.177251194331684
943.0,8.152123396702835,5.950349956827186
944.0,8.635344376163728,8.444935275630755
945.0,9.163931226709117,9.901722817463948
946.0,8.732240987076036,9.651490834381068
947.0,10.094615117193932,9.854547260508507
948.0,8.472181634258739,7.477089655689183
949.0,7.777827732194373,8.008710801393727
950.0,7.204735678693192,6.766183357686112
951.0,7.451755273313102,7.362241954216777
952.0,7.130808137574463,6.579607358285564
953.0,6.0834532239331605,7.090494923382414
954.0,6.740782473492938,7.006695140684126
955.0,6.8748267206174365,7.901734667116256
956.0,7.9839571391105615,6.596028623880708
957.0,7.417234273725225,6.248840433104792
958.0,5.801551084635269,7.070656775692181
959.0,6.64025701547338,5.757687984713948
960.0,7.839798059270915,5.885649657187816
961.0,7.6190925780225545,6.9980667640777785
962.0,6.447390506163126,7.339316623580983
963.0,8.919163763066202,7.315203626690645
964.0,10.192656700760555,7.789200479562399
965.0,7.4031733543141875,5.9252847401745905
966.0,8.35561893522161,5.723529466861489
967.0,12.765407815368476,6.464980705106591
968.0,13.330092540556743,6.2728129331984555
969.0,10.887220716328908,5.3816080108877395
970.0,9.130962836527948,5.381156090416332
971.0,7.4752965244795515,5.911034378803761
972.0,7.964297694632717,5.812959773044307
973.0,7.458339323506834,7.67414501709051
974.0,6.565396575624742,7.6091941103742835
975.0,6.9868869656438495,17.346708628376604
976.0,8.411674347158218,18.400921658986174
977.0,47.18094114120864,21.59533175976921
978.0,36.52557041699448,17.060338690944512
979.0,22.07229028511483,11.040968865909857
980.0,14.6051478026301,8.078078753137762
981.0,9.399235697426098,6.740474317185567
982.0,7.337249817680902,5.3325814031905185
