time,emg_right_hand,emg_left_hand
0.0,10.775,4.25
1.0,9.65670731707317,4.1483739837398375
2.0,12.9243031358885,3.4778745644599303
3.0,8.871341463414634,3.876341463414634
4.0,8.215165224232887,4.069197482297403
5.0,9.46927616050354,4.46927616050354
6.0,9.645967741935484,4.69758064516129
7.0,10.794354838709678,4.326612903225806
8.0,8.446774193548388,4.959677419354838
9.0,9.176075268817204,5.090245775729647
10.0,9.110569105691056,5.865795586527294
11.0,9.411044921509122,5.471377055936458
12.0,9.156328912367464,5.756567756921808
13.0,7.036248173541643,6.045296167247386
14.0,8.378876774942864,9.764737177325689
15.0,11.087864823348694,7.9245401071522235
16.0,7.52729759094826,6.247113259151024
17.0,9.437842343861227,4.8981435689932935
18.0,7.38743115656963,4.515047206923683
19.0,9.39492525570417,5.618410700236034
20.0,7.385247836349331,6.449606608969315
21.0,7.553363493312352,6.260208497246262
22.0,10.172163549799269,4.633257681212048
23.0,8.18729145231899,3.8746933567350563
24.0,6.868881760777905,5.27490568702213
25.0,10.233890132945994,4.7270673203009945
26.0,9.500894712421069,4.834422723879844
27.0,7.86287793638305,4.457504402232962
28.0,7.070551871417331,4.83601026563261
29.0,7.949516691019445,4.7523875088981296
30.0,8.392008542205238,4.610940017234274
31.0,7.945020793525908,4.226791802480237
32.0,7.172049567269866,4.783595594020456
33.0,9.291266719118804,4.360346184107002
34.0,8.827380015735642,4.465145554681353
35.0,6.598119792612318,4.489779902761807
36.0,5.8336783070063944,5.0147561984304705
37.0,8.125965825415078,4.51158738324356
38.0,6.9783054933527,3.830390465815328
39.0,8.683104359579575,3.8801145877463736
40.0,9.907474429583004,3.4543666404405977
41.0,9.361054287962235,3.9225413060582217
42.0,7.843548387096774,4.231451612903226
43.0,6.044354838709677,4.619354838709677
44.0,7.836290322580645,4.516935483870968
45.0,6.7883556254917385,4.588099921321794
46.0,6.673210070810386,4.093646734854445
47.0,5.284185680566483,3.5609362706530288
48.0,6.463556860134358,3.40782545542577
49.0,6.572907462325244,4.11036434061611
50.0,6.011080009683472,6.6134040428493615
51.0,6.388700527115161,6.30814211359058
52.0,7.775398650654354,5.7754420245372255
53.0,8.549746169120677,6.019264920759807
54.0,8.445693304859315,4.958963695627739
55.0,10.152036266906446,5.49443070697988
56.0,8.437922895357985,4.71610936270653
57.0,7.2221872541306045,5.681038552321007
58.0,6.976197969352965,5.9483646172867255
59.0,10.101788992544304,4.824300325952569
60.0,8.623222247199429,4.771166310741448
61.0,7.852912966917687,4.7788243228054395
62.0,9.75725900116144,5.090198943464089
63.0,8.946985875388709,5.062380577722828
64.0,6.755160915664456,5.20310216927054
65.0,6.444962721516616,5.004683226555768
66.0,7.44390993218688,5.431988310666517
67.0,6.0558690195196885,5.024581319545915
68.0,6.148979056610843,4.417590198943464
69.0,6.506275523584728,4.433106665168034
70.0,7.584766400659398,4.354633584354277
71.0,7.466423138885768,4.356790678505863
72.0,7.293196208459781,4.70996215952943
73.0,6.886920684875052,4.796110112022779
74.0,8.211202277921396,5.4097486043984855
75.0,8.07098272826046,4.951923869469109
76.0,7.781117230527144,4.544964594807238
77.0,6.799890412498595,5.152628226743097
78.0,6.797813869843767,5.275354051927616
79.0,7.068300176089318,4.937619422277173
80.0,6.134015211119853,5.616087819864374
81.0,6.773144505638605,5.044865310404257
82.0,7.043479075343749,5.249709639953542
83.0,6.521969952418418,4.602581394477539
84.0,7.346116668539957,4.530103780300475
85.0,9.101573564122738,3.964594807238395
86.0,10.147324940991346,3.574822974036192
87.0,8.242033831628639,4.6575924468922105
88.0,7.674508261211644,4.442092840283241
89.0,6.462745869394178,4.112863886703383
90.0,6.963120599568279,5.24252607476447
91.0,7.092073675079183,5.628255562952652
92.0,8.432609090358893,5.634123285578832
93.0,7.05152990204131,4.739788404619246
94.0,6.136386508849136,4.102073588619616
95.0,6.659802929826533,4.71918624255367
96.0,8.397958113221685,4.466988872653704
97.0,9.178548949083961,4.077964482409801
98.0,6.377292907721703,4.237906972387696
99.0,6.472114195796335,4.966130905548687
100.0,5.12000674384624,4.332003296991496
101.0,5.378571428571428,4.368125960061445
102.0,4.82557603686636,5.336482334869432
103.0,6.297787427626137,4.847373862696443
104.0,6.853175587853007,5.147093229351293
105.0,7.543474103918636,5.093707904998228
106.0,8.943108019701253,4.5662087912087905
107.0,7.4578443324312715,4.647217298830203
108.0,6.457292720392641,5.169431643625192
109.0,7.057985837922895,5.283870967741936
110.0,6.740322580645161,5.464516129032258
111.0,7.636801730920535,6.9722069236821405
112.0,6.242037578209883,7.267766288261961
113.0,7.122228466524296,7.181463789292271
114.0,5.326004083773556,6.008749203851485
115.0,5.302862388070885,5.695710164474916
116.0,6.541281705443782,5.82267805627365
117.0,7.875786782061368,5.216561762391818
118.0,9.512067738188902,6.119763216065341
119.0,7.3808961822337125,5.897725825184519
120.0,8.01066839009404,5.215975422427035
121.0,8.197309018021055,4.336154509010528
122.0,8.824038065265444,4.119021392978906
123.0,8.58221872541306,4.088158929976396
124.0,7.757199055861526,4.684657749803305
125.0,7.095751376868607,4.7879659810423
126.0,5.930645161290323,4.716170244651755
127.0,6.23715578284815,4.208203139635083
128.0,6.583305233973999,4.113971001461167
129.0,6.604791877411861,4.438968191525233
130.0,6.733041099996253,4.502049379940804
131.0,5.314592933947773,3.674706830017609
132.0,9.079326364692218,4.719493462215728
133.0,7.123918174665618,4.6948465774980335
134.0,7.362790828369112,4.543744145966805
135.0,6.458776366565509,4.815593271140084
136.0,6.649923195084485,4.915821812596006
137.0,5.915579221460417,5.374630025102094
138.0,7.248323404893036,4.799719006406654
139.0,6.637525757746056,5.348169795062006
140.0,9.422065490240156,4.553577985088606
141.0,9.209557528755012,4.651710314338166
142.0,7.689751227005358,4.019403544265858
143.0,10.027596380802517,4.056215578284815
144.0,9.837922895357986,4.010857592446892
145.0,7.734067663257278,4.411487018095987
146.0,8.343636431756021,5.029185867895545
147.0,6.527443707616799,4.032295530328575
148.0,6.225956314862687,4.58105728522723
149.0,7.742797197557229,5.00768049155146
150.0,11.545120077928889,4.955767861826084
151.0,9.732621482896857,4.820433854108127
152.0,8.603918923981867,5.268989547038327
153.0,9.61627889550785,5.988940092165898
154.0,11.343151249484844,6.822558165673822
155.0,10.35094226518302,7.196920310216926
156.0,9.868607395751376,6.128245476003148
157.0,10.201375859912446,5.54066049345357
158.0,9.615400754503822,5.514547398575723
159.0,8.70326442505829,4.502824634059882
160.0,9.774527570514982,4.333631042443002
161.0,8.437617837185106,4.137311193920163
162.0,7.798567869319246,4.65509066726612
163.0,7.574725562923832,4.819077591697576
164.0,8.84496646809786,5.6076954778764385
165.0,8.328088119590873,5.733468210258139
166.0,6.817859952793077,5.383256528417819
167.0,6.465996028623881,5.395391705069124
168.0,7.887759919073845,5.223502304147465
169.0,13.500153609831028,6.425012176389044
170.0,9.996302124311566,5.9008654602675055
171.0,11.853540519276159,5.618174665617624
172.0,8.320102281667978,5.277458693941778
173.0,9.43021243115657,4.815342250196695
174.0,9.030763178599528,4.995003933910306
175.0,9.46801730920535,5.017014162077104
176.0,8.855014798995917,5.433372672436401
177.0,10.190685999025888,5.431477838971938
178.0,9.30079614851448,5.705082237458319
179.0,9.73027612303773,5.373685886628452
180.0,9.389101195159418,5.542411299689034
181.0,10.286763328462778,5.874601925742759
182.0,10.404780637668129,4.926773069574013
183.0,10.349855756622082,5.5628489003784045
184.0,25.979412536060845,5.719347345547188
185.0,27.488554194297702,5.309827282604623
186.0,17.920909669926193,4.292207111011202
187.0,11.125815818066016,3.7973324341538346
188.0,11.165519276160504,5.050432730133753
189.0,9.132081038552322,6.496951219512194
190.0,7.519866247049566,8.783516915814321
191.0,7.598013375295043,9.214889850511408
192.0,6.513119590873328,8.231235247836349
193.0,8.082769472856018,6.220456333595594
194.0,10.141306058221872,5.009913453973249
195.0,10.228560188827693,4.574665617623918
196.0,9.30345060132629,4.371472593758195
197.0,9.246656176239181,4.516285452025027
198.0,6.752590760930651,4.880435352740625
199.0,6.807058559064853,4.819053238919485
200.0,7.808643362931325,4.706005769735116
201.0,9.317916151511746,4.489562024652504
202.0,11.661031808474768,4.749005282679555
203.0,10.971990558615264,4.561369000786781
204.0,9.199606608969315,4.734657749803304
205.0,9.668646734854445,5.440499606608969
206.0,8.48784421715185,5.345239968528718
207.0,6.664122738001574,4.857907159716758
208.0,5.453029110936271,4.435405192761605
209.0,6.2456333595594025,5.1579858379228956
210.0,9.128324154209285,4.834697088906372
211.0,8.61136900078678,4.410267505900865
212.0,7.54104473418006,4.604369450376531
213.0,6.673037728073133,4.781044172192875
214.0,8.629875238844555,4.864523622194747
215.0,8.165186767075044,5.602937319695778
216.0,7.17504027574838,6.676763703120901
217.0,7.147090779663557,5.703364429957663
218.0,5.467708216252669,5.378640740324454
219.0,5.493915552058747,5.021962459255929
220.0,9.053343823760818,4.360818253343823
221.0,7.535326514555468,3.643430369787569
222.0,7.562863886703383,4.829268292682926
223.0,8.66662077104642,6.122324940991345
224.0,7.451848937844217,5.818174665617624
225.0,5.563611329661684,7.325531077891425
226.0,8.135464201416207,6.04278127458694
227.0,7.054617661383986,5.751440560488554
228.0,7.733996478213629,5.608922483234049
229.0,8.23980180585216,5.149127983215316
230.0,8.210400509535049,5.040466824023079
231.0,9.259802929826533,5.251547338054026
232.0,9.177904537109885,4.841145891873666
233.0,9.89782323629688,4.899201978194897
234.0,9.325255704169944,4.670338316286388
235.0,8.365066876475215,5.673092053501181
236.0,6.596774193548386,5.543469708890638
237.0,7.101612903225806,5.848131392604248
238.0,6.8,5.553501180173091
239.0,8.243922108575923,4.593253343823761
240.0,7.136742722265932,4.833359559402045
241.0,7.023210070810385,4.716443745082612
242.0,8.033379228953578,4.724350904799371
243.0,8.617938630999213,4.5686073957513775
244.0,8.823524783634932,4.5793469708890635
245.0,9.28627065302911,4.850649095200629
246.0,8.00708103855232,5.321616837136113
247.0,8.466674159829155,5.029260799520437
248.0,7.066853995728897,5.243033232175639
249.0,6.8367314825221985,4.952358472893485
250.0,6.630718219624592,5.14195421677719
251.0,6.355170282117568,5.278136825147053
252.0,5.576455546813532,5.0425845790715975
253.0,10.160070810385523,5.7445712037765535
254.0,11.12708497246263,4.964889850511408
255.0,9.071203776553896,5.259845078865535
256.0,7.873878835562549,5.727316323854483
257.0,8.754083197159515,5.578550534176026
258.0,7.459889749641913,4.634200522792183
259.0,9.153581587570573,4.264719309015138
260.0,10.544139338238473,3.9563359011824786
261.0,9.379727681183228,3.377871970672915
262.0,7.545499419279906,4.144553407515642
263.0,9.518583042973287,4.75084370127643
264.0,9.781948971563448,3.836251343725773
265.0,10.579802180510285,5.156520636457694
266.0,10.520887190438724,5.074288942109556
267.0,8.276100558240605,5.373808515114574
268.0,7.052028773743959,4.879817166835263
269.0,7.052006294256491,5.312824547600314
270.0,6.892250196695516,5.9396538158929975
271.0,7.198663407140984,5.888825821437937
272.0,8.651155820313964,5.8886141395976175
273.0,13.015585777977593,5.415982915589525
274.0,12.309130418493123,4.769360458581545
275.0,9.656532164399984,4.576861114233262
276.0,9.53156869356712,5.226986624704956
277.0,14.084028324154211,7.6799295642726015
278.0,11.056213704994192,8.540837735566296
279.0,12.820789779326365,8.395123824510133
280.0,10.514643512794574,7.046284328050653
281.0,9.273313101794612,6.764340039713761
282.0,7.588269454123113,5.14692218350755
283.0,7.537694930299178,4.144505638604773
284.0,5.700397425810486,4.1568318908995545
285.0,6.822267949726643,5.058746393915552
286.0,8.816405414674493,6.657382638342511
287.0,10.41213661764409,7.284238132703907
288.0,10.086429882732006,7.422457007980217
289.0,8.472325877636656,6.687152972912218
290.0,7.372433591847439,6.525008429807801
291.0,8.895721404218651,5.932089468360122
292.0,9.60268817204301,6.035637480798771
293.0,8.522308081375744,7.883054213030609
294.0,7.047237832977407,10.832990521149451
295.0,8.017608931849686,8.263384661496385
296.0,8.964126484582819,6.750665018170919
297.0,8.923307481922745,5.942152785583156
298.0,11.54171818215878,5.371361132966168
299.0,12.416524728877206,6.291997014262947
300.0,9.778248502087997,5.294587919292876
301.0,7.7754342431761785,4.778293172864377
302.0,7.721678007279895,6.1453097125795795
303.0,8.397090923762836,6.437939034477193
304.0,8.362848900378404,6.196223446105429
305.0,7.288033419504702,4.891188040912667
306.0,7.406880596455734,5.705389457120377
307.0,9.558672398935972,5.703599527930763
308.0,10.996137274736803,6.02524446442621
309.0,10.23311041174928,5.8363830504664485
310.0,9.88760162601626,6.28404518376981
311.0,12.835525083361434,6.2822299651567945
312.0,8.937432093214941,6.3716421265595145
313.0,10.29129669176876,6.180060694616163
314.0,7.574051178299801,6.0577722827919525
315.0,5.660589711887901,5.696077329436889
316.0,8.34765276685025,5.585365853658537
317.0,7.702150537634408,5.380071934359897
318.0,22.071505376344085,5.124751788992544
319.0,28.01383374689826,5.325342668084604
320.0,38.12614386007383,4.854498635379832
321.0,31.66316793618131,6.320106460547059
322.0,22.692716934259025,7.318280722686702
323.0,14.535055031514512,6.160676459653643
324.0,11.643962384324304,5.2569405417556485
325.0,7.620454028007136,6.950980307392581
326.0,11.253485041053885,6.2338356634186685
327.0,12.034460303631255,6.729281288427172
328.0,11.60220261444348,6.708071014001154
329.0,11.263654227681819,6.134223585379057
330.0,10.952481151646797,5.1705635468100475
331.0,8.428640261110573,4.4715917655372035
332.0,7.34920385148552,4.196185980292983
333.0,6.6189764340039705,4.055606758832566
334.0,9.185601888276945,3.925806451612903
335.0,9.27564909520063,4.344492525570417
336.0,11.131451612903225,3.916935483870968
337.0,14.38654602675059,4.134303697875689
338.0,12.244693904312314,4.386660297478551
339.0,12.164547974972837,5.02659136038365
340.0,12.046790116518675,4.501198905998276
341.0,10.488314413098049,4.994147840095913
342.0,10.02822299651568,6.347173204450938
343.0,11.612037765538945,6.490790903300738
344.0,30.473603461841073,5.68520662395564
345.0,34.400511408339895,4.904047244389494
346.0,24.821400472069236,5.19693904312315
347.0,18.716383799782697,4.552770596830392
348.0,14.006144393241168,4.612566033494437
349.0,9.637611929114684,3.888895133190964
350.0,10.988160803267018,3.8393016372560043
351.0,10.160878198643736,4.75167284852572
352.0,8.1558615263572,4.4915814319433505
353.0,10.63575924468922,4.917859952793076
354.0,7.920948072383949,5.361841070023603
355.0,8.209609980892434,4.966788430557116
356.0,9.383640552995391,5.011482334869431
357.0,10.653917050691245,4.295660522273425
358.0,8.80571540968866,4.881770072309018
359.0,8.157676744970216,4.992134052676932
360.0,8.974842643587726,4.348760818253344
361.0,9.189417781274587,4.647993705743509
362.0,9.402832415420928,6.99921321793863
363.0,7.947285601888277,6.193548387096774
364.0,8.04720692368214,4.936742722265932
365.0,7.589749353714735,5.283758570304597
366.0,8.124142969540294,4.878307294593683
367.0,7.0291375946372,5.04392679180248
368.0,7.151468875996807,5.931798171668353
369.0,7.8758426205318415,5.499052114945113
370.0,7.344142508422603,4.504825596643063
371.0,7.0945732211664545,5.21386047731445
372.0,7.294846577498033,5.23058615263572
373.0,6.369197482297404,4.705711663107414
374.0,9.588060582218725,4.6718172792327
375.0,8.43878835562549,4.871795736390544
376.0,9.888709677419353,5.141090629800307
377.0,9.063824884792627,4.107987711213518
378.0,10.170976171743284,4.616252669439136
379.0,8.326213892323254,4.323448915364729
380.0,8.300685624367764,4.283665842418793
381.0,8.702978532089467,4.634978082499719
382.0,7.064004720692368,4.432022029897718
383.0,9.017840283241542,4.92844217151849
384.0,10.439968528717545,4.37309205350118
385.0,9.357985837922895,4.1693154996066095
386.0,9.931549960660897,4.9623131392604245
387.0,9.761211644374509,4.754956726986624
388.0,10.032612116443744,4.483693941778127
389.0,10.32877655389457,4.4460857592446885
390.0,8.807474429583007,5.444531864673486
391.0,7.709402045633359,6.0664830841856805
392.0,9.844000786782061,5.760070810385523
393.0,10.613532651455547,5.921164437450827
394.0,10.154209284028322,5.934933123524784
395.0,10.058933722977784,5.887832977408115
396.0,10.512288786482335,6.375691244239631
397.0,8.554224270353302,7.069623655913978
398.0,8.532757296466974,7.024731182795699
399.0,8.77926267281106,6.440245775729647
400.0,8.548121089505827,6.700790528642614
401.0,11.170297103892697,6.1430219924319065
402.0,12.005117829980144,6.560374283466337
403.0,8.250946011764265,8.290671012700912
404.0,9.09167884305571,7.221372372709903
405.0,7.494777265745007,5.460253456221198
406.0,8.30392295876167,4.478937728937729
407.0,7.96636240103982,5.628869786127851
408.0,9.521487652132812,5.9704832801607
409.0,9.404959825121114,6.52553468037339
410.0,7.419012170625074,5.756315727283469
411.0,7.173112371499467,5.475050218598605
412.0,10.246188646129637,5.221311778963234
413.0,8.711656478847667,5.251322687278627
414.0,7.982258064516129,5.054810610318085
415.0,7.390243902439025,4.524671237495785
416.0,8.101494885916601,4.885916601101496
417.0,7.879622344610542,4.980330448465775
418.0,9.718961447678993,5.55279307631786
419.0,7.554366640440598,4.813060582218725
420.0,6.47383848776453,4.829627388085295
421.0,5.332251003651475,4.787991918912454
422.0,5.724740765397728,5.069054968110829
423.0,6.820031673021445,4.42323716147477
424.0,6.985369888438338,3.5931685413982812
425.0,6.901783372672437,3.822059870368289
426.0,5.193745082612116,4.77993705743509
427.0,8.394118804091267,4.897364280094414
428.0,10.32411487018096,4.237096774193549
429.0,12.961559139784946,4.186979693529654
430.0,11.53279569892473,5.376308493499682
431.0,9.712896669289272,6.0453533026113675
432.0,7.437151099621595,6.149001536098311
433.0,6.645011427072796,5.458843805027911
434.0,6.360795773856356,4.664943239294145
435.0,6.296526919186243,4.58911992806564
436.0,5.565100595706418,5.4125772732381705
437.0,7.7413060582218725,4.980251770259638
438.0,21.68654602675059,5.460228166797797
439.0,21.18906372934697,5.147501966955153
440.0,14.37598347757671,5.158025177025964
441.0,13.676298190401258,5.316915814319434
442.0,12.76343711363381,5.4967067550859845
443.0,8.905794087894796,5.530572102956053
444.0,8.66831797235023,5.694239631336405
445.0,8.115227042823424,6.200719343598966
446.0,6.684787006856244,5.919596493199954
447.0,6.7774933498182905,5.437140796523172
448.0,10.769952418418193,4.718344198418943
449.0,9.17065677569218,5.311640627927017
450.0,8.453935783597466,4.801768386347458
451.0,7.790067813120527,4.2454947360533515
452.0,7.747128245476002,4.874901652242329
453.0,7.6527930763178595,4.526986624704957
454.0,8.503658536585366,4.490873328088119
455.0,8.986290322580643,4.4913060582218725
456.0,12.372738001573564,5.74771833202203
457.0,14.694708890637294,5.146636506687647
458.0,11.930055074744295,5.237686860739576
459.0,9.452508336143268,4.709089206099435
460.0,8.753791540219549,4.5732700161103
461.0,18.023866659173503,6.7946601850811135
462.0,70.45106590236409,9.353437488291934
463.0,50.4639653815893,7.41777378142445
464.0,35.662090217676365,6.9224045558427925
465.0,28.920101345022665,6.080849349968154
466.0,18.74646884717695,5.615188640365666
467.0,11.926342212730884,4.910269379191488
468.0,13.63972874751789,4.607564347532877
469.0,14.219718257090404,4.290940766550523
470.0,13.197954366640442,3.867820613690008
471.0,10.43855232100708,4.2360346184107005
472.0,9.027616050354052,5.065774980330448
473.0,8.542761605035405,7.753186467348544
474.0,8.44274193548387,7.269354838709678
475.0,7.465322580645161,7.062096774193549
476.0,7.517741935483871,8.011290322580646
477.0,7.893548387096774,5.717741935483871
478.0,7.670967741935483,4.641935483870967
479.0,6.962096774193548,3.7225806451612904
480.0,8.018548387096773,5.856274586939417
481.0,8.897324940991345,6.134343036978757
482.0,9.83817859952793,6.855881195908733
483.0,18.62071203776554,5.834402045633359
484.0,53.472548799220704,4.553587351541719
485.0,41.43296991495261,3.847997452324753
486.0,40.47494286463602,5.9358004570829115
487.0,27.634783260275,5.870780412873253
488.0,17.19686267050547,4.6184179051999665
489.0,11.486142548770403,3.921113714504745
490.0,10.679735318444996,3.934199658196511
491.0,7.078813371260264,3.2836222523870044
492.0,8.851234642619378,3.1344378543041014
493.0,8.267800944138473,4.505763178599528
494.0,7.147560975609755,4.88221872541306
495.0,6.86308025177026,4.106805664830842
496.0,7.357749803304484,3.595338316286388
497.0,7.221616837136113,3.2964594807238394
498.0,9.216050354051927,3.038552321007081
499.0,8.832258064516129,3.1516129032258062
500.0,7.624193548387096,2.3733870967741932
501.0,7.429032258064515,2.582258064516129
502.0,5.959677419354838,3.2556451612903223
503.0,6.413709677419355,3.1943548387096774
504.0,8.113957816377171,2.9728287841191063
505.0,6.456575682382134,3.4081885856079404
506.0,5.227481389578163,4.897642679900745
507.0,6.927047146401985,5.250434243176178
508.0,12.473200992555832,7.774813895781637
509.0,10.675038402457758,9.360407066052227
510.0,8.459293394777266,7.793509984639016
511.0,7.157066052227342,7.898771121351767
512.0,8.705952380952379,7.137288786482335
513.0,8.750822374583192,5.8357273987486415
514.0,12.283398898505112,5.893823760818252
515.0,11.74492525570417,5.686428009441385
516.0,9.711325915102467,5.799473605335132
517.0,9.729549286276272,6.877194559964033
518.0,9.277572964669739,7.946390168970814
519.0,8.049231950844854,7.3648233486943155
520.0,5.996927803379416,7.132872503840245
521.0,10.003072196620584,5.362519201228879
522.0,11.578940466824022,5.4868869656438495
523.0,12.193023865722527,5.508148814207036
524.0,11.63491439061856,4.402307894046682
525.0,10.332471619647073,3.9284777640403132
526.0,8.130598329024766,3.8147765164287586
527.0,8.0090442471245,3.653651043422877
528.0,13.593821887527632,4.719429770334569
529.0,8.826711250983479,4.498347757671125
530.0,10.115322580645161,4.436900078678206
531.0,8.734618410700236,4.56317859952793
532.0,8.353619197482297,4.843509047993706
533.0,6.980114083398899,4.846223446105428
534.0,7.356589299763965,4.986821400472069
535.0,8.153083436364318,5.11449364954479
536.0,6.816116855869019,5.402644149713386
537.0,7.924590685999025,5.628121838822075
538.0,6.747897231276459,5.265673822636844
539.0,7.7702409051740275,4.778745644599303
540.0,8.60409126671912,4.473013375295043
541.0,7.51093627065303,4.47411487018096
542.0,6.946262785208497,4.711093627065303
543.0,6.157238394964595,4.740991345397325
544.0,6.20190794649882,5.69441384736428
545.0,7.645712037765539,5.850432730133752
546.0,6.005501854557716,5.457661758645236
547.0,8.210854782510959,4.68791821213143
548.0,7.165862088344385,4.809822599378068
549.0,6.951882657075418,4.311766138398711
550.0,7.003514293207448,5.279577385635608
551.0,6.92710276872354,5.8745045146304
552.0,7.2201210145742,4.473522910344311
553.0,6.647196620583717,4.712135176651305
554.0,5.909072346483834,4.496154134352404
555.0,5.382592446892211,4.866581431943352
556.0,5.1097308801872146,6.577800641529988
557.0,6.40156282872648,6.053032425219679
558.0,6.338045379744829,7.264537455725496
559.0,8.120242202067537,6.911969750679428
560.0,7.304023540058159,6.593671736079289
561.0,7.628320407628038,6.28543329212094
562.0,7.9198606271777,5.660597205050392
563.0,6.491086883219062,5.095365479000412
564.0,5.359154771271214,4.623685886628451
565.0,5.491851185792964,5.720812258813831
566.0,5.929976396538159,5.368686073957514
567.0,6.316679779701023,6.280330448465774
568.0,7.645712037765539,5.897580645161291
569.0,8.20042898355251,5.817665130568356
570.0,9.970375782098834,4.79915514592934
571.0,12.848640855603875,4.9914293351547485
572.0,9.50034324448172,4.420134415807114
573.0,8.157331338999317,4.840673030090811
574.0,7.074188504912344,5.211324113861485
575.0,8.373620609655228,5.463697068732474
576.0,9.27537372147915,4.738001573564123
577.0,9.429095949945676,5.451200779288898
578.0,8.64662245700798,5.417893672024277
579.0,14.573114532988646,7.024839833651793
580.0,11.837698100483307,5.775205125323142
581.0,8.655277059683037,5.325525458019557
582.0,6.561893522161027,5.841871791989809
583.0,7.038473642800944,6.976081825334382
584.0,6.506648308418568,5.46522423288749
585.0,6.112647521636507,5.807435090479936
586.0,6.6043076317859954,5.380330448465775
587.0,27.20867427222659,4.350137686860739
588.0,24.017292057535958,3.805765700336904
589.0,22.57615192963344,3.2561479957231336
590.0,17.503801771268332,2.9103320623776954
591.0,27.01238475660191,5.426940224737235
592.0,22.550945291267873,7.05778092874867
593.0,15.037541680716345,5.865703795286801
594.0,12.580080364167696,4.535194447566596
595.0,12.634798246599978,3.630903675396201
596.0,11.63462965044397,5.566100932898729
597.0,9.136439249185118,8.040346933423251
598.0,8.87152410925031,7.029614851448054
599.0,8.4865301037803,5.5536707129744105
600.0,8.348506987374021,5.0554643887452695
601.0,8.054662620358922,5.064632273050841
602.0,6.016325727773406,4.440833988985052
603.0,8.95736498618088,3.870934455002118
604.0,7.8048921705097944,4.231434969436543
605.0,9.357068429865441,6.360996792350057
606.0,11.287001956868204,7.458724202626641
607.0,9.958607194012387,7.592068631604429
608.0,8.737450826121165,7.418863099921321
609.0,10.478786856992993,6.277730321082013
610.0,11.103437488291933,5.855544940242028
611.0,10.238166423138885,4.881175302536436
612.0,8.771325540444344,7.441374433329587
613.0,11.107129744108502,6.591942977033457
614.0,9.110625304409727,6.2850033719231195
615.0,8.143156869356712,6.288636619085085
616.0,7.88393091304185,6.427559851635383
617.0,11.313719980517776,6.024558840058447
618.0,9.055861526357198,5.5512195121951216
619.0,8.90479937057435,4.542722265932337
620.0,7.808811959087333,4.662785208497246
621.0,9.596380802517702,5.2857592446892205
622.0,9.080251770259638,4.898426435877262
623.0,7.82612116443745,5.262313139260424
624.0,9.802517702596381,5.392761605035405
625.0,8.224940991345397,4.8507474429583
626.0,6.712785208497246,5.464319433516916
627.0,8.703855232100707,6.523446105428796
628.0,9.935719905586152,6.167309205350118
629.0,8.178324154209283,5.563591660110149
630.0,7.388355625491738,5.589457120377656
631.0,8.972579730298428,5.265416354088522
632.0,7.764023932812471,5.99895522661153
633.0,9.848592461704275,9.43119617012267
634.0,7.751204177350958,8.16012994973482
635.0,6.840747643356832,7.3009245342694555
636.0,7.601094001723427,5.90567607058559
637.0,7.859555655464388,5.1601551084635275
638.0,7.492604248623131,4.86648308418568
639.0,9.190125885129818,5.084382376081825
640.0,7.4410110149488595,5.122600314712825
641.0,7.246676782436026,5.646534412348732
642.0,6.964093701996927,5.215399385560676
643.0,7.17115975422427,4.736328725038403
644.0,5.728882394814732,4.686280019482222
645.0,8.256376681278333,4.917333558128208
646.0,10.284716758457908,4.127714398111723
647.0,8.762922895357985,4.102970102281668
648.0,8.47966168371361,4.349173878835562
649.0,8.233536585365853,4.516443745082611
650.0,8.229268292682926,4.833221872541306
651.0,8.49009497583455,4.806837510771421
652.0,6.915612004046308,4.93083811022442
653.0,7.609890974485782,5.2043647671499755
654.0,7.394009216589862,6.152457757296467
655.0,5.834101382488479,6.1544546850998465
656.0,8.124311565696303,5.568863099921321
657.0,9.187962234461054,4.884028324154208
658.0,25.51817466561762,6.5476593233674265
659.0,31.825753999475474,5.679724438949458
660.0,19.63105166535536,6.656099434266231
661.0,14.332205612378702,5.867152785583155
662.0,10.254812483608706,5.588011876662545
663.0,9.065347870068562,6.312727136487954
664.0,9.536898205387583,5.953214566707879
665.0,8.829424712449889,5.384553782173766
666.0,6.246836012138923,6.346213143007006
667.0,7.503315724401483,5.492431905885879
668.0,6.962871379865872,5.630624555093477
669.0,5.912142669813795,5.922932823798284
670.0,7.909336480461579,5.475943201828332
671.0,11.38961447678993,5.472841032557791
672.0,11.496538158929976,5.581817841219887
673.0,8.752793076317861,5.328206136900079
674.0,8.643351691581433,5.248052714398112
675.0,7.61205743509048,5.148800157356412
676.0,7.528743771308681,4.73413510171968
677.0,7.569249934434827,4.554321681465662
678.0,7.571328350380278,4.246555018545577
679.0,7.9852609493836875,4.749083960885692
680.0,9.474141096249673,4.571630886815781
681.0,8.12560975609756,4.35558615263572
682.0,7.630407613629487,4.607829994553047
683.0,8.18793197361254,4.833035768322944
684.0,10.882164255885733,4.522241723657931
685.0,12.718816195606124,5.651758155298674
686.0,13.656103613145312,5.520292925013617
687.0,12.01243115656963,4.922738001573563
688.0,17.18190401258851,5.244846577498032
689.0,15.652006294256491,5.870102281667977
690.0,12.43489753100296,4.989695028286688
691.0,10.8451631636132,5.303915177400622
692.0,9.776240118391968,5.9556554643887445
693.0,6.687126746843505,4.927650706230565
694.0,6.16376306620209,4.46157880933648
695.0,6.014446817279232,4.485781724176688
696.0,6.687632535311528,5.610475441159942
697.0,14.789685661833577,7.099808924356525
698.0,18.952764976958527,6.20199692780338
699.0,17.097902851148326,6.333520662395564
700.0,12.292076917312952,6.518255217114383
701.0,8.077893297366153,5.860740511782998
702.0,6.0897531002959795,5.528354126859241
703.0,6.432966168371362,5.5494885916601095
704.0,8.30027537372148,5.629976396538158
705.0,8.589293207448204,5.362363718107227
706.0,8.17073826383425,4.635843542767224
707.0,6.6435473784018235,4.323422184948542
708.0,7.358752446085255,4.854079306478992
709.0,6.932326655772761,4.695883083609283
710.0,5.839819241864875,5.581121265306946
711.0,5.906455647683028,4.571992576005165
712.0,6.018056648308418,3.995633359559402
713.0,5.261343279065544,4.187138635033993
714.0,6.885107123403739,3.5165531884847385
715.0,6.318763239121225,3.822389497468176
716.0,6.221920958663681,3.464863120095221
717.0,7.2927071355080795,3.6659484758619296
718.0,19.59708890637293,3.6752950432730134
719.0,21.092623918174667,4.610700236034619
720.0,36.17230527143981,5.044846577498033
721.0,30.116443745082613,4.966692892735379
722.0,19.569630212431157,3.95667453448728
723.0,12.985051140833988,4.0837660634670865
724.0,8.398353809840827,3.3301075268817204
725.0,6.066446771167463,2.6999082087595068
726.0,6.254191127519215,2.5752229215840545
727.0,6.143224596017673,2.723498557566221
728.0,5.89789081885856,2.8811827956989244
729.0,5.665322580645161,3.2814516129032256
730.0,8.98244416873449,2.730541770057899
731.0,6.5415485052581825,2.688600378116507
732.0,5.636500059080705,3.2076066406711568
733.0,5.53355294063398,4.348856428124721
734.0,7.128220402728664,4.413560318517046
735.0,7.070343936158256,8.151170806638941
736.0,7.772855082237459,7.532565284178187
737.0,8.867475928215505,6.622734254992319
738.0,6.963523285002436,6.333097298714922
739.0,6.193743209321495,5.343583979618597
740.0,4.852182383574988,5.246221572814806
741.0,7.285099846390169,5.339554531490014
742.0,7.574807987711213,4.785099846390169
743.0,7.124961597542242,8.217972350230415
744.0,6.104386309992132,6.480881195908733
745.0,5.5617820613690006,5.394905586152635
746.0,6.289358772619984,5.254307631785995
747.0,5.184598741148702,5.26787962234461
748.0,8.273462965044397,5.951163313476453
749.0,7.98999662807688,8.615392829043497
750.0,7.435011225333806,9.068111189885382
751.0,13.512666902989483,7.522362046555594
752.0,12.265302766994347,6.483741998887554
753.0,8.205119631221125,6.367671831184813
754.0,9.153454780205369,5.422201375859912
755.0,8.657195309280281,5.792100333445731
756.0,9.670533138511107,5.58717919898093
757.0,9.177123374920384,5.299411786744596
758.0,8.180203064703457,5.178404705706043
759.0,7.967127496159755,4.836251920122887
760.0,7.465514592933948,5.310675883256527
761.0,6.446466973886329,4.942434715821812
762.0,7.374787381514367,4.945637106140646
763.0,6.024567269866247,4.751927616050354
764.0,4.89897718332022,4.948544453186467
765.0,7.321636506687646,5.4649095200629425
766.0,7.485523210070809,5.729858379228953
767.0,6.976357199055862,6.139909520062942
768.0,8.521243115656961,6.1058418568056645
769.0,7.436428009441384,5.383162863886703
770.0,7.278560188827695,5.304878048780488
771.0,6.200806451612904,5.266129032258064
772.0,5.235916601101495,5.020751376868607
773.0,4.974409913453973,5.097069236821401
774.0,6.074429583005507,4.864948859166011
775.0,5.993282379828406,4.252558914990072
776.0,5.157931512494848,4.5448278445918096
777.0,5.231522797946873,4.2590386272526315
778.0,5.779481415516035,4.6527616626751165
779.0,6.173375640881542,4.026616865955969
780.0,7.029391353466885,4.921526558938046
781.0,7.367115031572151,5.247053602049668
782.0,5.927351772277028,5.580253787649539
783.0,6.651494885916601,5.490715971675845
784.0,6.548564122738002,4.5479543666404405
785.0,6.322265932336743,4.052202989771833
786.0,9.093627065302911,4.7312352478363495
787.0,11.976789929189614,4.587490165224233
788.0,9.91089693154996,4.447560975609756
789.0,8.388788355625492,5.249901652242329
790.0,9.168371361132966,5.461841070023603
791.0,9.646577498033045,5.404878048780487
792.0,8.579386309992131,6.117073170731707
793.0,8.954150779721196,5.569158143194334
794.0,9.850403477980189,5.746262785208497
795.0,12.395304020658072,5.43882769472856
796.0,9.973743670439186,5.163414634146342
797.0,10.062166878492604,5.814673485444532
798.0,9.08593627065303,6.489948859166011
799.0,10.78634371136338,6.123296242179011
800.0,8.780583342699785,6.914126484582818
801.0,6.512321569068225,5.777991645123825
802.0,4.944172192874003,4.584717695103218
803.0,7.450370911543216,4.164978831815968
804.0,7.318273013375295,4.26052321007081
805.0,6.990991345397324,5.129858379228954
806.0,9.203461841070023,5.19645948072384
807.0,8.018332022029897,5.198151062155783
808.0,9.404020081675473,6.739743733842868
809.0,16.348556773674794,9.810070378087687
810.0,15.731133225547072,13.310680350334167
811.0,17.801129161947415,14.144954651957011
812.0,18.900564580973708,15.461541055325476
813.0,19.857348342714197,12.747821218906978
814.0,12.305310778914242,11.608674272226594
815.0,11.406226818028548,10.55243621445431
816.0,24.58698437675621,11.491137462065865
817.0,79.60340564235135,21.7904939867371
818.0,71.0178711925368,17.255209621220637
819.0,40.633621820089175,12.095140684125735
820.0,23.46851935109213,7.477040950133004
821.0,13.595798137084525,5.61465777862316
822.0,9.795528887582389,3.5690912811290465
823.0,6.9570878112184165,4.380769086669952
824.0,6.42539490407311,5.276713268373379
825.0,6.268558978393754,4.3385926688051
826.0,7.874560713349069,3.520412959712724
827.0,8.371111985313402,3.255957856724969
828.0,7.3807172829792815,3.02434989610442
829.0,6.689955415683189,3.283142689987694
830.0,7.504301075268817,4.786889991728701
831.0,7.588709677419354,5.549193548387096
832.0,6.659461054287961,9.461467348544453
833.0,10.62895357985838,8.498682140047206
834.0,8.71447678992919,7.287647521636507
835.0,8.247333514898425,6.9846839758720165
836.0,7.221729306623091,5.910044584316811
837.0,6.149102261494079,5.467138735903488
838.0,6.004527527285198,4.175662208234986
839.0,6.505892795900664,3.9007343299239445
840.0,6.404642014162077,3.804130605822187
841.0,5.733870967741935,3.4233870967741935
842.0,6.745967741935483,3.2653225806451616
843.0,6.332258064516129,4.138709677419355
844.0,9.079032258064515,5.14516129032258
845.0,7.146774193548387,4.627419354838709
846.0,7.116321044546851,4.832066052227343
847.0,6.820680191824959,5.562305646097935
848.0,5.947033644299576,5.269056048855419
849.0,5.249726499569143,6.549447379266419
850.0,4.9571803229553035,5.44934996815406
851.0,5.131225160886844,5.053015997901914
852.0,7.042009118602353,4.730284552845529
853.0,5.742444370473482,6.136985313401521
854.0,8.020012507817386,6.607605559926567
855.0,6.760281627630172,7.349908208759507
856.0,7.358221872541306,6.980330448465775
857.0,7.26494885916601,5.0568843430369785
858.0,6.971970889063728,4.762116443745082
859.0,6.574291896144768,5.582671125098347
860.0,5.482710464201416,6.275609756097561
861.0,7.517564909520063,6.348288749016522
862.0,8.545476003147128,5.522934697088907
863.0,8.501612903225807,5.010483870967741
864.0,8.858870967741936,5.124193548387097
865.0,8.9767576509512,5.029838709677419
866.0,7.60816639431903,4.526160503540519
867.0,7.741179971353063,6.5880802517702595
868.0,8.78026740503137,8.795653029110937
869.0,9.210698218644717,7.538552321007081
870.0,9.295003933910307,6.898701809598741
871.0,10.801711250983477,6.303796223446105
872.0,13.703140571728298,6.098883518789105
873.0,10.872096399535423,5.468182158780113
874.0,8.61106740099659,4.906710127009104
875.0,14.20010490427485,4.455322018657974
876.0,9.29635457644899,4.742216477464314
877.0,9.483084185680568,6.18974560713349
878.0,8.488558517276061,5.594488778989172
879.0,7.1208537594060815,6.081038552321006
880.0,4.988436321087777,6.355468135326515
881.0,6.251731929229962,5.6253343823760815
882.0,5.482671629445823,5.709677419354838
883.0,6.633064516129032,5.535483870967742
884.0,6.897734254992319,5.255837173579109
885.0,9.676099621595293,5.115507099771458
886.0,8.240872391442807,4.969043872466374
887.0,8.016000711850436,4.351457420104155
888.0,7.913319096324603,4.117088157056685
889.0,7.9837716833389525,4.55816005395077
890.0,7.2794546850998465,4.417396313364055
891.0,6.223588475516092,4.258334269978644
892.0,8.614665992282042,4.52263684387996
893.0,11.05470102281668,4.778599527930763
894.0,10.268055639613468,5.180449474469931
895.0,8.147737497226089,5.488611834009159
896.0,7.963876616433659,5.193951865076963
897.0,7.444172769271118,4.874316609171054
898.0,7.6111501139825295,5.566583953680728
899.0,9.51144767899292,4.809677419354838
900.0,10.18450039339103,4.980861526357199
901.0,7.712352478363493,4.211959087332809
902.0,8.916679779701022,5.271125098347758
903.0,16.330094413847362,4.728796223446105
904.0,14.317466561762393,5.124075531077891
905.0,11.876971638379977,5.3173485444531865
906.0,9.391897081413209,5.355107526881721
907.0,10.7781574313439,5.308051403094677
908.0,9.13082218725413,5.313587913528905
909.0,8.64049548972609,4.693018637934745
910.0,9.992290755615734,4.531225140779968
911.0,12.395223718821692,4.011849129529769
912.0,18.20075898765632,4.199079560830974
913.0,14.171731260341216,5.278802453226547
914.0,10.93942902101832,5.0633322093589594
915.0,7.494138473642801,4.1896538158929975
916.0,6.196262785208496,4.089181746656177
917.0,5.633064516129032,5.031451612903226
918.0,6.047580645161291,3.8072580645161294
919.0,6.744354838709677,3.903225806451613
920.0,5.470967741935484,3.084677419354839
921.0,4.922580645161291,4.09758064516129
922.0,4.731451612903226,4.095161290322581
923.0,4.747684036393714,4.717018196856906
924.0,6.760368375395913,4.169278177893442
925.0,8.423378522867115,3.5581638725816536
926.0,7.401146381811213,3.5855040448667514
927.0,6.671944158647541,4.190332667594666
928.0,7.722738001573564,3.9329661683713617
929.0,17.41085759244689,3.4304484657749805
930.0,37.25538945712037,3.6164044059795435
931.0,24.681589299763964,3.9144177812745866
932.0,23.210228166797798,3.2271636506687646
933.0,19.362372147915025,2.7793076317859953
934.0,16.479169944925257,3.3936860739575136
935.0,11.406923682140047,3.6230527143981117
936.0,9.691738788355625,2.9825727773406765
937.0,7.97055417700579,2.799069478908189
938.0,8.358487159313281,2.6830221509411123
939.0,7.652361859226533,4.730547173780848
940.0,8.576584155419717,4.49672519979365
941.0,26.590377050172485,4.928771726568737
942.0,22.48974560713349,4.38601026563261
943.0,14.737979094076653,5.359072346483833
944.0,33.953634183807274,5.303332584017085
945.0,30.180810010865088,5.692480611442059
946.0,20.947997452324753,4.876138024053052
947.0,14.170379528680078,4.867022591884905
948.0,11.0360346184107,3.9332808811959086
949.0,9.230485931587427,3.9703682889363456
950.0,9.604306695140684,4.055758495372972
951.0,9.784293394777265,3.8069508448540708
952.0,11.011452362219476,4.242647334307445
953.0,19.920645535948445,8.329388183282754
954.0,18.39887883556255,7.609087332808812
955.0,15.850764302573902,6.870442283915926
956.0,14.251764639766213,6.081092877749054
957.0,9.763175789591997,5.68413416507437
958.0,8.207797572215354,5.8465025664081525
959.0,7.926076205462515,4.800670638042786
960.0,7.211745532201865,4.694226518302049
961.0,6.537647521636506,5.397167584579071
962.0,5.834688659098572,5.132812558540332
963.0,6.386295942452511,4.634148214754037
964.0,4.936293132516578,3.867880558989922
965.0,4.450286613465213,3.9237121126971637
966.0,4.456063841744408,4.545254954853696
967.0,5.925727773406766,3.832612116443745
968.0,6.076573564122738,5.048564122738002
969.0,7.599803304484658,4.890873328088119
970.0,8.611998426435877,4.238985051140834
971.0,7.523544453186466,5.287313139260425
972.0,5.6565302911093625,5.702124311565697
973.0,7.221557828481511,9.120849724626279
974.0,9.635375220111648,7.335892248323406
975.0,9.245913416507436,7.467946124161703
976.0,9.054696339590123,5.414234198793601
977.0,11.765782473492937,5.568240230789405
978.0,10.117258626503315,5.079687909782323
979.0,10.567845903113408,5.1788608519725745
980.0,12.753681016072832,4.972091716308867
981.0,10.725458019557154,4.843265520212805
982.0,8.670046082949309,4.303379416282642
983.0,8.893825634108875,4.314488029672923
984.0,9.732140047206924,4.7281667977970105
985.0,8.611624200609253,4.244501099477496
986.0,9.498822852992799,4.553759766328609
987.0,9.51068207952551,4.455941645556122
988.0,7.240864249833565,4.441818187058155
989.0,7.023893965986806,4.008871327990132
990.0,5.401626016260163,4.309868494998314
991.0,4.701888276947286,5.8056254917387875
992.0,5.005940204563336,5.262372147915027
993.0,5.731490952006295,4.662096774193548
994.0,5.5024390243902435,5.227419354838709
995.0,6.649567269866247,5.1333005507474425
996.0,8.607159716758456,4.980409126671912
997.0,9.261014948859167,4.51750590086546
998.0,7.246164437450826,4.660405192761605
999.0,7.472678992918961,4.018509047993706
1000.0,7.124744295830055,4.496262785208497
1001.0,6.655605822187255,4.397226593233674
1002.0,5.479819040125885,4.119984264358773
1003.0,8.496007081038552,3.871164437450826
1004.0,14.550826121164437,5.583162863886703
1005.0,11.131038552321007,4.9017309205350115
1006.0,9.394152091024633,5.173625653129981
1007.0,7.4390307306121635,5.732089324260842
1008.0,8.471679015974846,5.060379831288564
1009.0,7.793289584792339,5.6709925270114105
1010.0,9.41238043362355,5.4609880022940605
1011.0,7.397493537147353,4.830635794837211
1012.0,7.924169195609007,5.227529878985425
1013.0,10.878843055711663,5.5497995579034125
1014.0,11.335378966692893,5.958735154171818
1015.0,10.95486493574613,6.281491888651605
1016.0,7.5185230976733735,6.027228279195233
1017.0,8.137289434929087,6.336992374266174
1018.0,8.89567068127257,5.9699025600677835
1019.0,7.570573342209849,4.921615324093687
1020.0,7.640361415400754,4.729179023179809
1021.0,7.857503681736569,4.9536040670580395
1022.0,6.896789179873365,5.270255891499007
1023.0,9.144303323217564,5.100116144018582
1024.0,7.436431756022629,4.7572964669738855
1025.0,6.611764265108088,4.536712749615975
1026.0,6.286999363081188,5.079922071110111
1027.0,5.962470495672699,4.810621557828481
1028.0,6.914752163650668,4.780212431156569
1029.0,8.097915027537372,5.227084972462627
1030.0,6.799606608969315,4.5579464988198275
1031.0,44.60524708703308,4.793716046607471
1032.0,56.328946951291556,4.414051985255762
1033.0,49.029382995708715,4.878701838418596
1034.0,31.64293697385751,5.470428810633374
1035.0,19.09968961015381,5.818201179884893
1036.0,13.807525296628366,5.4599454440131066
1037.0,10.121463227305085,4.961403656663295
1038.0,7.2175864523622195,4.407717957363905
1039.0,6.050177962609119,5.3037803004758155
1040.0,6.092171518489378,5.587411487018096
1041.0,7.517859952793076,5.021125098347757
1042.0,6.321833202202989,4.82588512981904
1043.0,7.511723052714398,5.717781274586939
1044.0,6.47970102281668,5.541030684500393
1045.0,6.0697482297403615,6.082159716758458
1046.0,6.6058418568056645,5.962450826121164
1047.0,6.806372934697089,5.839752163650669
1048.0,5.896734854445318,6.350118017309205
1049.0,7.015479937057435,5.630055074744296
1050.0,7.338788355625491,5.663414634146341
1051.0,8.58552321007081,5.5639653815893
1052.0,8.541935483870967,5.838709677419354
1053.0,6.781643625192011,5.856490015360983
1054.0,5.996466973886328,5.790745007680492
1055.0,8.256298003072196,5.319162826420891
1056.0,8.333410138248848,5.3854070660522275
1057.0,8.02097336180735,4.898014311940354
1058.0,7.245586527293844,4.521510996215953
1059.0,6.0921481023565995,5.097852272301525
1060.0,9.097283728597654,5.360619684537859
1061.0,9.880823123899441,4.792060994342663
1062.0,8.660867895545316,4.67242703533026
1063.0,7.09132104454685,4.332987711213518
1064.0,7.695562174515754,4.542310141995429
1065.0,6.946821025813945,5.142430032595257
1066.0,7.658145067625791,6.241262972537559
1067.0,7.690478063766813,5.418980180585216
1068.0,8.677831478775616,5.943164362519202
1069.0,11.303510546626203,5.591251732793825
1070.0,8.280544003596718,5.485137312202615
1071.0,8.133190963246038,4.5391854932374205
1072.0,7.090558615263571,4.518056648308418
1073.0,7.759677419354839,4.887667191188041
1074.0,7.787096774193548,4.362631598666217
1075.0,7.460787992495309,3.6427634783260276
1076.0,7.201361738183138,4.226102431531228
1077.0,9.463584094898021,4.724341538346259
1078.0,10.014640198511167,5.0417818740399385
1079.0,8.762158808933002,5.387327188940092
1080.0,8.899807987711213,4.218241167434716
1081.0,10.379890225169532,4.499452999138287
1082.0,12.09428459031134,4.340970739200479
1083.0,16.515080926154884,3.7961176051852683
1084.0,12.894627402495221,3.6696264658499116
1085.0,11.8693567120003,4.366303248285939
1086.0,9.623435442082176,4.1970312666614795
1087.0,8.151425862362132,4.546672315358389
1088.0,9.863113178455428,5.279742811607485
1089.0,11.542886250911428,5.867251421539384
1090.0,8.823286443428064,6.027174097866466
1091.0,7.6711138586040235,4.870824435202878
1092.0,6.5063279757221535,3.930347308081376
1093.0,8.429661683713611,4.566325727773407
1094.0,9.100354051927617,5.677261998426436
1095.0,8.943469708890637,5.231963021243115
1096.0,7.941227380015736,6.068095987411487
1097.0,7.161093627065303,6.830035405192762
1098.0,26.537903225806453,6.137981904012589
1099.0,33.49677419354839,6.01962459255929
1100.0,22.44512007792889,31.441905511221012
1101.0,15.869294893409762,33.77642089093702
1102.0,10.54190551122101,34.5874039938556
1103.0,6.870874077404368,23.29629837773032
1104.0,5.290865834925629,25.97896294631149
1105.0,6.370855344498145,25.48103293244914
1106.0,10.866780937394626,29.19252276048106
1107.0,11.542261436439249,17.400862290083374
1108.0,8.475815818066014,12.872627765625406
1109.0,6.916900827994455,8.553544409956684
1110.0,5.568588662845154,7.67792427871106
1111.0,4.204121239369076,6.029678111031377
1112.0,7.598834813232925,5.154954853696003
1113.0,6.590047206923682,5.550826121164437
1114.0,6.600576036866359,5.312672811059908
1115.0,6.163653478700686,5.658932786332471
1116.0,10.255617061930987,5.010318084747668
1117.0,8.86501348769248,4.738695627739688
1118.0,13.75579783447604,4.226087445206249
1119.0,10.139035629987635,5.25090854595182
1120.0,9.220186579745981,5.1840695365479
1121.0,8.022996515679441,4.792192124686224
1122.0,6.734157581207148,4.451564197669626
1123.0,9.052459630587089,4.342534936870106
1124.0,10.073249409913455,4.903068450039338
1125.0,8.995318646734855,5.326829268292682
1126.0,9.287175452399685,5.2222471994305195
1127.0,8.141778127458693,5.563995354239257
1128.0,5.690479937057435,5.307489415907984
1129.0,8.255704169944925,5.68781237121127
1130.0,7.465437788018433,5.418125960061444
1131.0,8.690429358210633,4.527747180697613
1132.0,8.53838934472294,4.271800419617099
1133.0,9.41004238428945,4.599487981751535
1134.0,7.2998972739700605,5.387057130136192
1135.0,7.657782738367519,5.268259747863795
1136.0,8.60926677662447,4.762131822154145
1137.0,6.828158171947168,5.566982512178567
1138.0,7.327759429136298,5.019934982405479
1139.0,6.596688526527236,4.5652782701169805
1140.0,6.732264404884389,4.71727721531026
1141.0,5.26336722548367,4.9225402973632715
1142.0,6.187328774032157,6.449979826100989
1143.0,7.572738001573564,5.926809598741148
1144.0,6.927261998426436,6.030605822187253
1145.0,7.429720692368214,5.414044059795437
1146.0,11.315263571990558,4.869925255704169
1147.0,7.621026750590087,5.492033831628639
1148.0,7.331077891424075,5.743194335169157
1149.0,6.157671125098348,4.951455546813532
1150.0,5.751416207710464,6.127340676632572
1151.0,6.36522423288749,5.419315499606609
1152.0,5.547285601888277,4.624291896144768
1153.0,5.190616687272864,4.747264995691432
1154.0,5.031972387696227,3.891728485257203
1155.0,7.642712827429586,4.621722389857716
1156.0,6.556437058876083,4.7253773239611165
1157.0,6.2613027151186085,5.396520290619425
1158.0,7.309606810708305,4.7868930178135525
1159.0,5.756770360507575,4.743879239040529
1160.0,6.756353265145554,6.375944138473642
1161.0,5.832842531190289,6.292945187516391
1162.0,10.511149825783972,5.759375819564648
1163.0,11.303155558053277,5.75388145816942
1164.0,9.410340564235135,5.256700760555992
1165.0,8.548169795062007,4.491281705443782
1166.0,7.341720055449402,5.419191862425537
1167.0,7.056029185867896,4.752377205799707
1168.0,8.143681390730958,5.582443520287738
1169.0,6.115076242928328,5.418043535274062
1170.0,6.886291259225956,5.768761005582406
1171.0,5.64157206549024,4.769195609006782
1172.0,6.446277771533476,5.528185530703233
1173.0,9.983957139110561,5.216492450638792
1174.0,8.373642800944138,5.6205350118017305
1175.0,7.990912667191187,6.6151455546813525
1176.0,7.058221872541306,5.171518489378442
1177.0,9.974485781724177,5.201266344460679
1178.0,8.22933573114533,4.817548986549774
1179.0,7.606878723165112,5.860387396500693
1180.0,7.611222451820406,4.91246084102103
1181.0,9.372487701126568,5.769763071966061
1182.0,9.667642074683773,5.657604551231616
1183.0,9.96077956268751,5.644892905416115
1184.0,8.554525726044215,5.980376560234939
1185.0,7.4400359671799485,5.328837435839796
1186.0,6.72578771870668,5.446854745045146
1187.0,7.501892023528531,6.01354389119928
1188.0,7.149900715597019,5.685999025888877
1189.0,6.698452661945975,5.360203814019707
1190.0,6.09155520587464,5.059724251620397
1191.0,6.3074482035142925,4.75590273875089
1192.0,6.025767112509834,4.762667191188041
1193.0,7.004779701022817,4.952852084972463
1194.0,8.272934697088907,5.365460267505901
1195.0,6.7314319433516925,4.180212431156569
1196.0,7.045626803042223,4.651303738223486
1197.0,8.162142669813793,5.394957533942584
1198.0,9.919800681877785,6.151786398757287
1199.0,9.69859503203327,5.5145429314980845
1200.0,8.158974935371473,5.211303723813558
1201.0,8.178359746731108,5.3557678618260836
1202.0,7.050627552358472,4.644052302274175
1203.0,5.63562062118317,5.346967142482484
1204.0,5.380790341313551,5.359351466786556
1205.0,5.072353400598876,5.367372176734882
1206.0,5.385035866310453,5.033882783882784
1207.0,5.880952236853103,5.372960274710865
1208.0,7.450920650291225,4.413830648763772
1209.0,6.595429603179406,4.455993665395711
1210.0,6.936093627065302,5.135110149488591
1211.0,5.766719118804091,4.769866247049567
1212.0,6.532061369000787,6.05763178599528
1213.0,8.0323564122738,6.05595987411487
1214.0,8.0786782061369,6.193705743509048
1215.0,7.04516129032258,6.439968528717545
1216.0,6.751062155782849,6.619748229740361
1217.0,6.58733280881196,6.10837922895358
1218.0,8.55330448465775,4.921616837136113
1219.0,7.771719759208095,5.336342927195213
1220.0,7.892154136094999,8.729147073353705
1221.0,7.795644337913746,7.881597533529723
1222.0,6.755387453135061,6.995599073984524
1223.0,5.524821972043533,6.4073195999348265
1224.0,5.681390730958,5.5880558989921685
1225.0,6.002772470121014,4.923846989621969
1226.0,5.858506612715897,4.890562361844816
1227.0,5.1721872541306055,4.721164437450826
1228.0,7.398052714398111,4.659559402045633
1229.0,8.949890412498595,4.808427934509759
1230.0,6.8520596830392275,4.81157037952868
1231.0,6.171594357648646,5.332801318796598
1232.0,8.161515117455323,5.135086733355813
1233.0,10.379734742047882,4.803090929526807
1234.0,10.851298190401259,4.600189202352853
1235.0,7.96566258289311,5.319370761679967
1236.0,9.068000449589748,4.579895845041399
1237.0,7.7090592334494765,4.287587576336593
1238.0,8.235135438911993,4.715184893784421
1239.0,8.361234123861976,4.260582218725412
1240.0,12.633831628638866,4.412745869394177
1241.0,10.619748229740361,4.182140047206923
1242.0,9.44795436664044,4.631982690794651
1243.0,6.83412667191188,4.902143981117231
1244.0,7.235746131654865,4.8906191369606
1245.0,8.424324678730658,5.367024753374085
1246.0,7.956517178075006,4.374641408945107
1247.0,8.013427747180696,4.596211341766023
1248.0,6.504353527406241,4.870883011559644
1249.0,6.754327301337529,5.505664830841857
1250.0,6.743410700236034,5.7433910306845
1251.0,7.772607807875314,5.753876774942864
1252.0,6.9511464538608525,5.170851597916901
1253.0,7.537256940541756,4.88951706567757
1254.0,7.948004945487242,4.096174740549249
1255.0,9.302090592334494,4.7715334757034205
1256.0,8.386986250046832,4.282969914952606
1257.0,7.138808025177026,4.441561762391817
1258.0,6.265774980330448,5.088119590873328
1259.0,6.418095987411487,4.17970102281668
1260.0,6.3036191974822975,4.621085759244689
1261.0,7.985483870967741,5.358064516129032
1262.0,8.22802911093627,4.568646734854445
1263.0,7.331391667603311,4.773033044846578
1264.0,11.920131317672624,5.31433910306845
1265.0,10.129017271739539,4.67854051927616
1266.0,9.252706904949234,4.5961447678992915
1267.0,8.154284215653217,4.76699449252557
1268.0,8.827910156981755,4.674587876063092
1269.0,7.089684725188265,4.529863062455509
1270.0,8.031358885017422,5.421865048143569
1271.0,6.939867371023941,6.631224008092615
1272.0,6.968360121389232,5.76683151624143
1273.0,7.449233824135476,5.561987186692143
1274.0,11.71025439286651,5.238597279982017
1275.0,11.762365591397849,5.615364729684163
1276.0,12.520415121201903,5.490112772095463
1277.0,13.11504627027837,5.8788880146865985
1278.0,11.955232100708104,5.47183320220299
1279.0,8.696085759244689,5.501888276947286
1280.0,8.564909520062944,5.486585365853658
1281.0,7.24618410700236,5.352340676632572
1282.0,6.476317859952793,5.272541306058221
1283.0,8.187048356835927,4.5660251366781655
1284.0,5.858748411305453,4.697332001855998
1285.0,5.694913151364764,3.989185277088503
1286.0,5.974069478908189,5.626447477253929
1287.0,6.9297766749379655,5.025723738626965
1288.0,7.291935483870967,4.256451612903226
1289.0,6.294433516915815,5.2223052714398115
1290.0,8.282297403619197,5.460346184107003
1291.0,6.375826121164437,6.033398898505114
1292.0,6.584284028324154,5.977183320220299
1293.0,5.509008654602675,5.39948859166011
1294.0,6.396125098347758,4.904307631785995
1295.0,6.054110936270653,4.593686073957514
1296.0,5.975314712824547,4.8209874114870175
1297.0,8.101809598741148,5.248859166011014
1298.0,6.280463596199237,4.8632885472775325
1299.0,7.618595291411971,4.751471181585265
1300.0,7.227137928947528,4.836268635639209
1301.0,6.493041445834521,4.707651383497174
1302.0,8.773271313003807,4.4651553534323005
1303.0,7.472893484695215,3.819189989134914
1304.0,6.865872391442808,4.591735041774381
1305.0,7.326327226405905,4.822618110973737
1306.0,7.392042261436439,4.807238394964595
1307.0,7.917593945524708,4.0183395151923875
1308.0,10.437439298178873,5.7025704429323625
1309.0,8.351685817460798,5.861906779294663
1310.0,6.807628904009706,5.065099731110746
1311.0,8.303737647089338,6.197296409334175
1312.0,6.478904153805805,5.549262643991204
1313.0,8.91778127458694,3.8188827694728555
1314.0,7.4167977970102275,4.972383949645948
1315.0,5.544826907946499,4.597600314712825
1316.0,9.905881195908734,4.6076711250983475
1317.0,9.353343823760818,4.509480723839497
1318.0,8.583123524783634,5.276514555468135
1319.0,23.053560188827696,4.566266719118804
1320.0,25.827989771833202,4.1246656176239185
1321.0,40.59584972462628,3.5994295830055076
1322.0,38.5875885129819,4.724409913453973
1323.0,24.85629425649095,4.382769472856019
1324.0,17.451750590086547,5.263532651455547
1325.0,14.031923682140047,6.830153422501967
1326.0,12.905074744295831,6.3324154209284025
1327.0,9.102419354838709,5.575806451612903
1328.0,7.483064516129032,7.612096774193548
1329.0,5.256451612903226,6.3274193548387085
1330.0,7.790322580645161,6.024193548387096
1331.0,5.932718894009216,5.586021505376344
1332.0,7.372240642913342,5.295430107526881
1333.0,6.182176576374058,5.390250458956203
1334.0,7.425362481735416,4.200367164961972
1335.0,5.765100595706418,5.0517964857067925
1336.0,6.154823723352441,5.232119441010078
1337.0,8.27410737701847,6.173494810984977
1338.0,10.664984451687834,5.488793038852047
1339.0,9.815379716009142,5.451684088269454
1340.0,8.929601738413698,4.9973211944101
1341.0,8.073957513768685,5.05507474429583
1342.0,8.012116443745082,4.659008654602674
1343.0,7.5930763178599525,4.264516129032257
1344.0,9.807002360346186,5.168686073957513
1345.0,9.030566483084186,4.109126671911881
1346.0,7.571538158929977,5.09390243902439
1347.0,8.198269079464989,4.592918961447678
1348.0,6.1612313139260415,4.685169158143195
1349.0,5.217151848937844,5.417309205350119
1350.0,4.765105206883334,5.530488813572999
1351.0,4.683418063709173,4.8612318182735175
1352.0,5.102999354435232,5.190293328491597
1353.0,7.078161754322258,4.671169480925579
1354.0,7.381331073856644,4.426851459581593
1355.0,8.044925255704168,5.02690794649882
1356.0,7.9380212431156565,5.025550747442958
1357.0,10.268453785920347,5.201734667116257
1358.0,8.136568506238058,5.015932336742722
1359.0,7.785436102056873,4.894276160503541
1360.0,7.556142519950545,4.307631785995279
1361.0,7.067758362801635,5.341987936008392
1362.0,6.72773478815965,6.790656026375931
1363.0,6.749428069963082,5.795174403356937
1364.0,6.326326938207347,5.8421190663519535
1365.0,7.031456152030502,5.67298714922633
1366.0,6.918705743509047,5.250472069236821
1367.0,6.815145554681353,4.419826907946499
1368.0,7.90609756097561,4.675373721479151
1369.0,7.650609756097561,4.540047206923682
1370.0,8.629740361919747,4.285346184107002
1371.0,27.069708890637294,3.676947285601888
1372.0,39.950668764752166,4.484815106215578
1373.0,39.48202202989772,5.209362706530291
1374.0,23.493430369787568,6.1212328125585405
1375.0,15.255940204563334,5.298588475516091
1376.0,10.941778127458694,5.305421303060957
1377.0,11.953842119066351,4.915289798059271
1378.0,8.56031995803829,4.338840807762916
1379.0,6.966430632048256,6.47585328387846
1380.0,6.264096511932861,6.489303510546627
1381.0,8.425517964857068,7.043943651418081
1382.0,6.199842643587726,6.595751376868607
1383.0,6.561290322580645,5.4683713611329665
1384.0,5.618725413060583,4.673524783634933
1385.0,5.118882769472856,4.710326514555469
1386.0,6.790086546026751,4.259598741148702
1387.0,5.661290322580646,6.560483870967742
1388.0,5.158064516129032,8.010483870967741
1389.0,5.348229740361919,7.07486231313926
1390.0,5.773308418568057,5.5245279307631785
1391.0,6.8026553894571204,4.977478363493312
1392.0,8.465056573376794,4.522322131055413
1393.0,7.253092802817429,6.928365366602975
1394.0,6.911361507624292,6.0979356337342185
1395.0,7.586227567344798,6.786182608369863
1396.0,8.105151549211344,6.457371398598779
1397.0,11.130763178599526,5.560713349068974
1398.0,9.146026750590087,5.520141620771046
1399.0,9.188276947285601,5.3434697088906375
1400.0,8.526475216365068,5.688414634146341
1401.0,9.530979543666405,4.9010621557828475
1402.0,8.7816089693155,4.591109362706531
1403.0,7.669433516915814,4.553619197482297
1404.0,10.132513768686074,4.950295043273013
1405.0,7.571498819826908,5.448131392604248
1406.0,10.44260424862313,5.172856018882769
1407.0,14.668587726199842,4.5187647521636505
1408.0,10.866325727773408,5.408654602675059
1409.0,7.889811172305271,5.779464988198269
1410.0,7.389529242066613,5.657052002547675
1411.0,8.1769735116706,5.116537409613727
1412.0,7.767086283766063,4.82459443258027
1413.0,8.23436926304747,4.647072983402644
1414.0,7.169603986362445,5.9150687497658385
1415.0,6.235877261998427,4.622895357985838
1416.0,6.546341463414634,4.667073170731706
1417.0,6.155310778914241,4.24785601888277
1418.0,7.234913453973249,4.515460267505901
1419.0,7.4420535011801725,3.8714398111723054
1420.0,6.83221872541306,4.587411487018096
1421.0,8.633418568056648,4.656490952006294
1422.0,8.364693154996065,5.466148701809599
1423.0,8.16420141620771,6.217348544453187
1424.0,7.093160615937956,6.11454984826346
1425.0,6.958854108126335,4.873561312802068
1426.0,7.567812183882207,4.374733056086321
1427.0,8.803172417668877,5.423322468247724
1428.0,9.962665317897418,4.726330972987149
1429.0,10.925892622981529,4.734891911131093
1430.0,10.02292907721704,4.716646060469822
1431.0,9.420433854108126,4.463122400809262
1432.0,9.039642576149264,4.875699674047432
1433.0,7.942332621482896,4.5869918699187
1434.0,7.935948447042073,4.919924319058859
1435.0,7.344625529204601,4.991144955228354
1436.0,7.504570829118429,4.905249896969016
1437.0,8.17110261886029,4.246922183507549
1438.0,7.934331797235023,4.647772657450076
1439.0,8.340591397849462,4.832949308755761
1440.0,7.818693134822167,5.140647524518492
1441.0,8.491758241758241,4.139601796053409
1442.0,8.859166371263145,4.690000590807042
1443.0,9.580379802468709,4.769065991705645
1444.0,8.300132859534905,5.123311516702547
1445.0,8.739219212468623,5.140646659922821
1446.0,9.194990820875951,5.11209771083886
1447.0,9.018508111348394,5.2292158405455025
1448.0,7.806264283840994,4.701547338054025
1449.0,7.737435839796185,5.0884605297665875
1450.0,7.876475216365067,4.899606608969315
1451.0,7.3328088119590875,5.742486231313926
1452.0,6.039732494099134,5.327025963808025
1453.0,5.789103068450039,4.970043273013375
1454.0,8.24716758457907,5.241719118804091
1455.0,11.284067663257277,5.5898111723052715
1456.0,10.550452399685287,5.489476789929189
1457.0,8.783693941778125,5.000786782061368
1458.0,7.3357592446892195,4.981667977970101
1459.0,8.104150275373721,4.844099134539732
1460.0,8.381294256490953,4.580232100708104
1461.0,7.228876774942865,4.512907909033007
1462.0,8.91540219549661,4.222809186617211
1463.0,11.201603536772694,4.405739762466749
1464.0,8.289236072084224,5.298857292720392
1465.0,7.416602542487672,5.9537014781704
1466.0,6.576196816558737,9.085299279791805
1467.0,6.4092628457301934,8.60795255098953
1468.0,5.256854082188465,7.729389336076984
1469.0,6.733462446286993,7.042979483144707
1470.0,5.0664830841856805,5.1966758457907165
1471.0,6.2211447678992915,5.850354051927615
1472.0,7.136782061369001,5.425945075118953
1473.0,7.02016129032258,5.029416282642089
1474.0,9.57258064516129,3.9864823348694314
1475.0,8.80851691581432,4.644126297253756
1476.0,7.030409126671911,4.014559214716571
1477.0,6.328107789142408,3.3057435090479936
1478.0,6.112037765538945,3.9770653029110936
1479.0,5.9592446892210855,4.23044846577498
1480.0,7.15323891948597,4.943087557603687
1481.0,5.3161945974298455,4.844871866921434
1482.0,6.3855166535536325,5.321226256041362
1483.0,6.981064778389719,5.075935708665842
1484.0,9.21311303435615,4.5308868157806
1485.0,7.808103855232101,4.352242328874901
1486.0,6.893430369787568,4.945200629425649
1487.0,7.469295830055074,4.290342250196695
1488.0,5.974567269866247,5.331864673485445
1489.0,6.689299763965382,5.982061369000787
1490.0,6.2855625491738785,5.297167584579071
1491.0,7.592033831628639,5.052202989771833
1492.0,6.392801448485949,6.3837110895922855
1493.0,6.9444229976684735,5.412420060925174
1494.0,7.3078297784041295,5.537584838450298
1495.0,7.926967603600176,5.438894700893127
1496.0,9.599597098416925,5.851626736756556
1497.0,9.913660035217863,5.459574388370612
1498.0,9.642313888576673,5.250140496796673
1499.0,7.929451875163913,5.4703083436364315
1500.0,7.944662995017047,5.016035367726949
1501.0,9.4820875950695,4.949638454909895
1502.0,9.533412011539468,5.695039526432131
1503.0,7.14804241129969,5.113648795474129
1504.0,7.4343130643288,5.368268330148739
1505.0,8.917549923195082,5.810176651305683
1506.0,8.76246300251021,5.960192574275974
1507.0,5.826392791577685,6.2575156419766955
1508.0,7.0792486231313925,5.429602675059009
1509.0,8.640066876475217,5.796380802517703
1510.0,7.401337529504327,5.479543666404405
1511.0,7.261644374508261,5.6630605822187245
1512.0,7.118194335169158,4.538630999213217
1513.0,9.758457907159716,5.241542092840283
1514.0,9.411487018095986,5.001573564122738
1515.0,8.040912667191186,5.551534225019669
1516.0,9.410175714660372,5.569218088494249
1517.0,9.78164175190139,5.411831703570492
1518.0,9.708660654844762,5.204594461400126
1519.0,8.018374387217817,6.402061196081652
1520.0,7.42437208739333,6.070818166884257
1521.0,8.146594645847202,5.551614920615707
1522.0,7.763285521192681,5.486586374548609
1523.0,6.944563710614064,5.513232924955977
1524.0,9.523658723914428,5.383839121801357
1525.0,11.50336162002173,5.424984077029711
1526.0,8.059342100333446,4.992330748192274
1527.0,7.62290472443895,4.649587876063093
1528.0,7.1430959874114865,4.235700236034618
1529.0,7.176444307069798,4.649474541980442
1530.0,6.810773294368888,4.829664493649545
1531.0,9.295728897381139,4.871333033606834
1532.0,7.565645723277509,5.248412386197595
1533.0,6.306564010340564,5.3563560750814885
1534.0,6.594585325505861,5.388771207811335
1535.0,7.73183239524703,5.477863180616918
1536.0,8.234287558756481,5.434053541527971
1537.0,7.09330428291876,5.491456353769493
1538.0,7.3224979321753505,6.955169561621173
1539.0,7.553147128245476,5.152714398111723
1540.0,7.020948072383948,5.445141620771046
1541.0,9.81974822974036,4.300393391030685
1542.0,15.39455153422502,5.1703579858379225
1543.0,12.612116443745082,5.560267505900866
1544.0,9.592446892210857,5.280527143981117
1545.0,10.732887490165222,4.838926042486232
1546.0,7.345476003147127,4.651317859952792
1547.0,6.258221872541306,4.5639653815893
1548.0,8.472934697088906,5.382297403619197
1549.0,7.865649469858754,5.191935483870967
1550.0,6.496685212243827,5.012377191389779
1551.0,6.5221329287025585,5.002559563436825
1552.0,7.563328462777715,4.5809316306562575
1553.0,8.305267693229927,3.8899937460913065
1554.0,8.139116181484395,4.522416227884364
1555.0,7.467407553107789,4.944748229740362
1556.0,7.5862575399947545,4.8130231164062796
1557.0,7.3590611067401,4.403757820988348
1558.0,7.28763440860215,4.948771121351767
1559.0,5.542341987936009,5.097851335656214
1560.0,6.068751639129294,5.636828893634558
1561.0,8.25265538945712,4.729858379228954
1562.0,6.217053501180173,5.590735641227379
1563.0,4.9653815892997635,5.5594807238394965
1564.0,5.5538945712037755,5.426868607395752
1565.0,4.928560188827694,5.027143981117231
1566.0,4.46508654602675,5.186959087332808
1567.0,5.957140047206924,5.032592446892211
1568.0,6.114358772619984,4.441345397324941
1569.0,6.458831628638867,4.3257081038552325
1570.0,5.494335169158143,4.887450826121164
1571.0,6.3439417781274585,4.667918961447679
1572.0,7.556648308418568,5.196459480723839
1573.0,5.730330448465775,5.090755310778913
1574.0,7.646125098347757,5.315637293469709
1575.0,6.720967741935484,5.062844217151849
1576.0,5.703725038402457,4.6958038290060315
1577.0,6.569201228878647,3.9849986886965643
1578.0,6.518668277696602,5.324127983215316
1579.0,9.681012326252294,4.35522835412686
1580.0,8.200814881420703,4.532902476490203
1581.0,21.731743846240306,5.010690869581508
1582.0,20.75821063279757,5.741635757371398
1583.0,26.779262672811058,5.396466973886328
1584.0,17.46427260125136,6.356161252856768
1585.0,13.011322168521223,5.166559889101195
1586.0,11.010346184107004,5.050177025963808
1587.0,9.411624704956727,4.641620771046419
1588.0,8.193233674272227,4.403776553894571
1589.0,6.770102281667978,4.653894571203777
1590.0,6.654405979543666,4.417269866247049
1591.0,6.102261998426435,4.054838709677419
1592.0,7.211959087332808,4.072934697088906
1593.0,6.993076317859952,4.650157356412274
1594.0,8.779011651867672,4.309343036978756
1595.0,8.97737064928253,4.520512532314263
1596.0,8.612078977932637,4.719268667341051
1597.0,9.144355775354988,6.460342437525757
1598.0,13.623712112697163,5.804443445356112
1599.0,12.269843767562099,4.889318496871605
1600.0,9.490528642613615,5.0230002622606875
1601.0,8.415274811734292,4.874946611217264
1602.0,8.090957626166123,4.500809261548836
1603.0,9.587670001123975,5.213760256266157
1604.0,25.45673822636844,4.233089805552433
1605.0,25.173760818253342,4.149724626278521
1606.0,39.34549567269866,4.57918961447679
1607.0,38.744020456333594,4.864634146341463
1608.0,25.949901652242325,5.05623524783635
1609.0,16.301711250983477,4.804169944925256
1610.0,13.410129819040126,3.9875688434303695
1611.0,11.479622344610544,4.518961447678993
1612.0,8.425491738788356,4.467977970102282
1613.0,6.814398111723053,5.19417781274587
1614.0,14.083831628638867,11.034146341463416
1615.0,24.426924085618026,15.668934212915332
1616.0,55.79568076822208,25.830139805120133
1617.0,61.1295477011842,23.203818919082494
1618.0,66.10267707639855,23.571264298250924
1619.0,50.77832516290423,15.880990134963383
1620.0,32.82807313326589,13.05328013187966
1621.0,68.02725450526395,12.452053126522049
1622.0,124.00418586789554,22.676459293394778
1623.0,72.68233486943164,25.438632872503838
1624.0,52.620081675471134,20.92921022067363
1625.0,38.28387096774193,14.788965381589298
1626.0,23.237442396313362,11.799955041025065
1627.0,13.591167434715821,7.944140346933422
1628.0,10.29800307219662,4.994305196508186
1629.0,11.951676595106964,3.35891499007156
1630.0,9.10353302611367,2.932565284178187
1631.0,7.313978494623656,2.315821812596006
1632.0,14.435483870967742,5.038940092165898
1633.0,22.668764752163653,6.413591660110149
1634.0,20.32193997976846,5.00274437076168
1635.0,16.412582893110034,4.264275411187292
1636.0,13.79177531752276,3.946250608819452
1637.0,9.946060469821289,4.31938106477839
1638.0,10.667665130568356,4.703225806451613
1639.0,8.406947098272825,4.988335019294894
1640.0,22.056296129781572,4.811909445131318
1641.0,17.06945412311266,7.144516878348506
1642.0,12.66836761455172,6.677865198006819
1643.0,8.906941694549877,7.397865601484799
1644.0,9.030463091851761,7.067896121712014
1645.0,8.351118642700076,9.36943193182375
1646.0,9.784528636849645,10.77873642224547
1647.0,13.469453258516987,9.754421974563595
1648.0,11.48700123637181,8.541313551384361
1649.0,12.242348544453186,10.524036191974822
1650.0,27.22238394964595,8.01927616050354
1651.0,36.99553501180173,7.339299763965381
1652.0,38.2413257277734,6.752793076317859
1653.0,23.513906372934695,5.976966955153422
1654.0,15.048898505114083,5.458457907159717
1655.0,11.241219310456131,5.059129697996732
1656.0,25.15514938772216,4.509737941051867
1657.0,35.20369585829853,6.167064092477153
1658.0,27.229419020528383,7.053859122781231
1659.0,33.93650337336411,9.297189199470868
1660.0,30.40177868944588,9.142542430032595
1661.0,17.946837885429545,7.062016222696789
1662.0,11.847120752313513,7.522048630624555
1663.0,7.884193173728972,6.013525158293057
