time,emg_right_hand,emg_left_hand
0.0,4.380952380952381,7.4523809523809526
1.0,5.920634920634921,6.674603174603174
2.0,5.185498589679774,5.536502405840384
3.0,6.751606658923731,5.367440960123886
4.0,6.5357236521673965,6.455827807125997
5.0,9.956033869094451,8.109250309092952
6.0,39.65966055973924,8.96706755085984
7.0,24.97639131037114,14.346487318693784
8.0,15.208194905869323,12.360947379702067
9.0,9.959704211767228,12.585235594612938
10.0,6.883508769178357,13.160710038136711
11.0,4.444903386125278,12.281737507547618
12.0,10.481001086508561,12.288198269079464
13.0,10.349563523285003,11.767371023940655
14.0,9.62025027162714,10.97623543516541
15.0,7.531132216852122,9.087960361170431
16.0,6.066883968378854,8.955722902851148
17.0,7.041231126596981,6.043793788168296
18.0,5.607966384520279,5.0511123023318145
19.0,4.727178276745547,3.895525429199701
20.0,4.805524622243741,3.209053037180496
21.0,5.632030603804798,3.164164598842018
22.0,5.379321753515302,5.655872622001654
23.0,6.387096774193548,11.765322580645162
24.0,5.140612076095946,11.353287841191065
25.0,5.661780692425854,10.905388160226869
26.0,6.176917096803013,8.735424213866384
27.0,5.2449396656320335,7.51169322416372
28.0,7.81708037569564,6.281633394143229
29.0,12.595294293956766,8.215671949346222
30.0,18.107302086845753,11.257015473380541
31.0,13.136338091491513,10.83301487392754
32.0,12.50286613465213,10.651755273313102
33.0,12.364991944850324,12.021561575062755
34.0,13.47896294631149,11.303023491064403
35.0,9.525551684088269,12.255516840882693
36.0,11.046570004870556,14.539432767599566
37.0,13.052995391705068,11.858678955453149
38.0,13.592933947772657,11.898617511520737
39.0,10.664934090665524,11.180152180902368
40.0,8.774657950201835,10.321794734397885
41.0,8.54938734683671,10.435090915586038
42.0,7.179455578180258,9.333136855642483
43.0,8.320008573571965,16.476404815489587
44.0,21.4290471572597,29.218112019294022
45.0,17.387281053712904,19.087389878828592
46.0,15.266989221172889,18.96804209763242
47.0,16.105326854361675,16.39652596075848
48.0,18.45381728707438,14.348514829055695
49.0,16.727302034567877,26.440976533331938
50.0,17.810655625578868,26.912884580030024
51.0,18.45294686040848,28.910743365283828
52.0,17.342606121913754,36.453917050691246
53.0,22.67690981978944,25.687557603686635
54.0,23.46158630249897,24.582960548499496
55.0,22.569783822262185,22.043175602262934
56.0,20.712695290547376,45.90868457532502
57.0,13.54749822037391,51.986581619272414
58.0,26.69485751228748,34.15587520573523
59.0,34.56261364992816,27.127504872733866
60.0,26.469254073100153,27.082672671652233
61.0,29.962737635628418,18.667043503036037
62.0,20.878178603884418,29.893157958479165
63.0,13.67352291034431,49.16634820726088
64.0,10.592859016147766,37.86523547263123
65.0,8.951219512195122,28.193361058034547
66.0,14.717545239968528,20.43098422689296
67.0,13.029189614476788,14.240747817616423
68.0,11.91998426435877,10.184421715184893
69.0,8.57840283241542,10.583556254917386
70.0,6.372128245476004,12.485641227380015
71.0,6.424508261211645,10.092289535798585
72.0,6.787667695535516,13.779436744739655
73.0,9.040490024006939,16.79900240069398
74.0,8.279253666606145,16.34363967398979
75.0,10.806159091367588,22.324642417640057
76.0,32.8913564929694,28.31306865177833
77.0,28.07016129032258,23.44032258064516
78.0,19.266286388670338,22.106687647521635
79.0,12.996852871754525,21.702537372147916
80.0,10.494394177812746,16.711349331235247
81.0,8.745987411487018,17.699626278520846
82.0,7.477025963808025,14.163926042486231
83.0,7.388709677419355,11.276612903225807
84.0,7.430645161290322,10.82016129032258
85.0,6.138709677419355,9.587096774193547
86.0,4.984677419354838,10.394354838709678
87.0,5.414474772539288,9.243444995864351
88.0,6.678205128205128,10.402770885028948
89.0,6.39313482216708,13.067514474772537
90.0,7.865115798180314,13.687386269644332
91.0,7.403928866832092,13.23966087675765
92.0,6.729838709677419,10.745967741935484
93.0,13.081313926042487,14.478225806451611
94.0,10.376947285601888,11.594354838709677
95.0,8.590047206923682,12.190912667191188
96.0,8.971636506687647,12.534972462627852
97.0,7.87210857592447,11.527970102281667
98.0,7.254228953579858,13.267210857592445
99.0,6.058969315499606,12.231589299763964
100.0,6.247580645161291,10.773387096774194
101.0,5.872456575682381,13.278287841191068
102.0,6.646712158808933,11.90285359801489
103.0,6.242307692307692,11.424007444168733
104.0,5.06712158808933,14.590632754342431
105.0,5.4230769230769225,13.130397022332506
106.0,6.674468922108575,18.611073957513767
107.0,7.592073170731707,16.980940204563336
108.0,7.503009441384736,15.285877261998426
109.0,7.087096774193548,14.522738001573565
110.0,7.516089693154996,16.075059008654602
111.0,8.88078284815106,19.03320220298977
112.0,11.4162077104642,15.515342250196694
113.0,10.025551684088269,15.576598853546137
114.0,8.871941853059083,15.633696751714059
115.0,7.682627102768723,16.435652467123745
116.0,8.568206511558202,13.330710726462101
117.0,6.85648720542505,14.96747967479675
118.0,7.003222059870368,14.722752987898541
119.0,7.959911580682627,15.59387059308381
120.0,7.3325915102469,12.125259450751189
121.0,7.541778127458694,13.356726986624704
122.0,8.457749803304484,14.503147128245475
123.0,7.285129819040126,15.351101494885915
124.0,7.200393391030685,16.360837922895357
125.0,6.236428009441385,14.74614476789929
126.0,6.824586939417781,14.004307631785995
127.0,6.437293469708891,11.536428009441384
128.0,8.358221872541305,9.933595594020456
129.0,8.579583005507473,14.467741935483868
130.0,8.629838709677419,13.579032258064515
131.0,6.866129032258064,14.458870967741934
132.0,7.166129032258064,14.086290322580645
133.0,6.658064516129032,13.420967741935483
134.0,7.171360628618693,15.258436724565756
135.0,6.634470636889992,10.417928039702232
136.0,8.911186931348222,14.94968982630273
137.0,7.92293217535153,14.817183622828786
138.0,7.769933829611249,13.114640198511166
139.0,7.3862903225806456,13.338709677419356
140.0,7.670967741935484,13.853225806451613
141.0,7.07741935483871,12.588709677419354
142.0,7.515942928039703,13.985277088502896
143.0,6.8486972704714635,11.891832092638545
144.0,5.878784119106699,13.054383788254755
145.0,6.863585607940447,15.744933829611249
146.0,6.408808933002481,16.524483043837883
147.0,7.566935483870967,14.904838709677417
148.0,7.468010752688172,13.910587262200165
149.0,7.963440860215053,13.926261373035565
150.0,8.739450563860476,13.339881276604329
151.0,9.03181222134802,16.288302164659363
152.0,8.340965119328612,13.971314732998447
153.0,8.542525570416995,12.249842643587726
154.0,9.002944812858267,11.700228541455921
155.0,8.301629762841408,13.345786969390431
156.0,8.357738563560751,12.20475815818066
157.0,6.475842044134727,13.348267206174366
158.0,6.310501667228653,11.922520699861376
159.0,7.081855307032332,12.678505863399648
160.0,7.659731744782885,11.536735229103442
161.0,7.96472031771009,13.16002772470121
162.0,6.818204422118663,14.433700498295305
163.0,5.786118340091589,13.899108313663781
164.0,5.939794024491114,12.733975872016785
165.0,5.869582299421009,14.274462365591399
166.0,7.446484698097601,13.442473118279569
167.0,7.038709677419354,12.855645161290322
168.0,7.412158808933002,11.269127377998347
169.0,7.748821339950371,12.801902398676592
170.0,8.476426799007443,12.187241521918942
171.0,8.118858560794044,10.792411083540117
172.0,8.79168734491315,12.512737799834575
173.0,8.22016129032258,14.085483870967742
174.0,9.064516129032258,12.56774193548387
175.0,7.211290322580645,13.746774193548386
176.0,7.569168734491315,12.159367245657569
177.0,7.801116625310174,11.61879652605459
178.0,6.848138957816376,10.992059553349876
179.0,7.407133995037221,12.477481389578163
180.0,7.39590570719603,12.606079404466502
181.0,7.07983870967742,11.733064516129032
182.0,7.1,16.008870967741935
183.0,6.795967741935484,10.363709677419354
184.0,7.649350904799371,14.412037765538944
185.0,7.461369000786782,13.760857592446891
186.0,7.322029897718332,14.069708890637292
187.0,8.216660110149489,11.873564122738001
188.0,11.377166460604698,10.56435502603874
189.0,10.209747667753176,13.373837623168857
190.0,10.400595706417894,9.736053351316922
191.0,9.336561013075567,10.327601064029073
192.0,8.638756509684914,15.13626315986662
193.0,8.46377149600989,21.82350792401933
194.0,9.864448690569855,15.131167809373945
195.0,8.74103630437226,16.867314825221982
196.0,7.561013075568544,14.071747030834363
197.0,8.395339252931699,15.395076992244578
198.0,9.411074894159078,13.16406279270166
199.0,9.022666816529917,14.970402008167547
200.0,9.812670937769283,15.575287550110524
201.0,9.409875988160803,16.505975797085156
202.0,8.950095537821737,14.590835862275672
203.0,11.244127233899068,17.92405679817167
204.0,10.239968528717544,18.80409126671912
205.0,9.431943351691581,15.459480723839498
206.0,8.738788355625491,18.00078678206137
207.0,6.915971675845791,17.606766325727772
208.0,7.480858716421265,12.840268255217115
209.0,6.404630774418343,13.497789517065677
210.0,6.5492862762729,11.347635907234647
211.0,5.838372485107339,13.060914727810871
212.0,5.504080026975385,13.669688284440447
213.0,5.6407946498819825,12.312608182533438
214.0,6.151848937844218,12.557513768686075
215.0,9.198269079464987,10.497088906372934
216.0,9.534303697875687,12.839653815892998
217.0,8.409952793076318,11.487883556254916
218.0,7.581530291109362,14.484618410700236
219.0,7.898964070285864,11.336126409651193
220.0,7.6697810123262515,14.444223708366115
221.0,5.792905848413323,12.868777865198005
222.0,7.054616292440841,15.109135245818958
223.0,5.805937178478485,13.417874074522382
224.0,5.880925578486554,12.677754241562265
225.0,7.127795598055236,9.841001432346829
226.0,8.568775847808105,12.800909842845327
227.0,10.331451612903226,11.775806451612903
228.0,8.162096774193548,10.199193548387097
229.0,7.490901571546733,14.781492969396194
230.0,7.326902398676593,16.85969809760132
231.0,7.10529817022736,13.049587443765255
232.0,7.475632956081422,12.503019528334242
233.0,6.197316871431742,15.237455869595918
234.0,6.765617623918175,15.467564909520062
235.0,9.79571203776554,18.414830841856805
236.0,9.946636506687646,16.86005114083399
237.0,9.99369075718407,13.32524446442621
238.0,13.07434341163688,16.13351129594245
239.0,11.429382563410886,17.051806788805216
240.0,12.865497733318346,16.95695178149938
241.0,11.162395564047806,11.527968228991046
242.0,10.29771083885954,14.417901165186766
243.0,8.752002547675247,13.91052414671612
244.0,10.838786482334868,13.995545314900152
245.0,10.766265782473493,13.206663294743546
246.0,8.791581431943353,11.803638867033833
247.0,8.591758457907162,11.071577498033045
248.0,6.523701809598741,11.626514555468134
249.0,6.365774980330448,9.977616050354051
250.0,5.9598146018681035,12.395806350743406
251.0,6.3524879460953425,12.161209626984606
252.0,5.646808489176703,15.355604813492302
253.0,5.188726825233513,14.254818535778409
254.0,5.097353184449958,12.241728701406121
255.0,5.372580645161291,10.954032258064515
256.0,6.1,13.182258064516128
257.0,6.7402605459057074,12.965942928039702
258.0,6.248759305210918,14.000310173697269
259.0,5.81712158808933,14.965074441687344
260.0,7.978722084367245,14.382133995037222
261.0,8.550248138957816,14.531389578163772
262.0,8.195967741935483,17.212096774193547
263.0,8.121443341604632,15.775599669148054
264.0,9.599834574028122,13.969251447477255
265.0,11.064433416046318,12.467287014061208
266.0,10.779797353184449,13.428804797353184
267.0,8.93953478988884,13.421453932901613
268.0,8.483084185680566,13.072678992918961
269.0,7.678638867033831,8.81829268292683
270.0,8.799803304484659,9.631392604248624
271.0,6.786191974822974,10.841502753737215
272.0,7.456413210445469,9.60062474242254
273.0,7.350147989959162,11.832658948709302
274.0,18.36217076917313,10.974315312277545
275.0,21.570542504964223,11.96512775842044
276.0,27.234150088044657,10.004151212019032
277.0,19.264634146341464,10.944846577498033
278.0,13.153166797797011,12.711211644374508
279.0,9.260012738376231,13.248885392079726
280.0,8.612603499306882,12.192461878535834
281.0,7.156906822524446,13.497471057659885
282.0,6.949346221572815,13.280693866846502
283.0,7.096774193548387,11.654377880184331
284.0,6.76085571915627,14.796373309355213
285.0,7.144690353773113,10.602541314771202
286.0,7.805064070895773,13.201040242639058
287.0,7.256986720547733,12.522563132072218
288.0,7.7289017376295295,12.76921495182158
289.0,9.340098090724773,14.847047998933533
290.0,7.758214379378817,15.714285714285715
291.0,7.614514255741636,16.660983102918586
292.0,7.5441234873178225,15.687250384024576
293.0,7.907781649245063,13.639848638117718
294.0,6.45051140833989,15.346498819826909
295.0,7.606451612903226,15.165381589299763
296.0,7.572108575924469,14.588375295043273
297.0,7.586015885504477,13.952309767337304
298.0,7.473967816867109,13.309357086658423
299.0,7.168109100445843,13.08935596268405
300.0,7.895620246525045,12.895897493537147
301.0,8.631167809373945,15.535075493612078
302.0,7.831160316211458,12.537151099621594
303.0,6.79244876550148,13.529787194185305
304.0,6.634937806751339,14.095735453898318
305.0,6.262541680716346,12.519238694691094
306.0,6.442958300550747,12.149488591660111
307.0,7.362706530291109,12.779701022816681
308.0,6.407553107789142,11.859166011014949
309.0,6.686231313926042,15.010070810385523
310.0,6.924154209284028,12.97922895357986
311.0,7.268922108575923,12.653658536585365
312.0,7.049881982690794,13.32533438237608
313.0,7.729504327301337,13.269669551534225
314.0,7.572010228166797,11.646931549960662
315.0,7.890440597954367,13.143627065302912
316.0,8.300295043273014,12.166699449252556
317.0,7.308077629163388,12.038260808166394
318.0,6.629569892473118,10.581286186931347
319.0,8.485752688172042,9.912014061207609
320.0,7.04005376344086,9.392700578990901
321.0,8.463978494623657,11.973366418527707
322.0,6.504032258064516,12.180645161290322
323.0,7.257402812241521,11.605314309346568
324.0,6.90854011579818,10.00144747725393
325.0,7.091770057899089,10.36443341604632
326.0,6.974110835401158,14.136248966087676
327.0,7.451571546732837,13.681430934656742
328.0,7.35241935483871,11.437903225806451
329.0,8.213709677419354,12.705645161290324
330.0,7.629032258064516,13.935483870967742
331.0,6.547746071133167,16.23564929693962
332.0,8.99282464846981,15.492018196856908
333.0,8.558459924549618,15.149923339183765
334.0,8.121165446145776,15.933026185720914
335.0,9.108163368234178,15.805999717565413
336.0,8.027714398111723,13.949016522423289
337.0,8.264611955052553,12.203085597853498
338.0,6.388796929532571,11.607443664387016
339.0,8.19332647420767,12.094191934475177
340.0,7.9385200427686655,18.44599447235167
341.0,8.780038935625088,14.198606992273394
342.0,10.09254523996853,12.203088119590873
343.0,9.358772619984263,14.50275373721479
344.0,7.280566483084186,13.485129819040125
345.0,7.7474429583005495,13.54720692368214
346.0,7.8360346184107,13.399016522423288
347.0,7.761290322580645,13.218548387096774
348.0,8.091935483870968,14.263709677419353
349.0,7.691687344913152,13.005086848635235
350.0,10.681327543424317,15.3227047146402
351.0,14.528163771712158,17.28151364764268
352.0,13.976985111662533,18.54801488833747
353.0,13.871960297766748,17.271588089330024
354.0,12.393548387096773,18.35564516129032
355.0,10.724901652242329,14.396341463414632
356.0,12.58099921321794,11.290912667191188
357.0,9.812581019819415,7.946838822074856
358.0,7.091341650743697,8.39868494998314
359.0,5.5800294150192595,6.674361229680242
360.0,6.409448224425444,6.5201074441084135
361.0,6.06682088640627,5.816495500181665
362.0,7.42335461914259,6.9554827731323075
363.0,6.254051143447883,6.366730184288232
364.0,6.646333970252145,6.5249147652766855
365.0,6.46584991195534,5.9145030159979015
366.0,6.970252144917762,8.992881495635233
367.0,16.008336143269265,10.258832565284177
368.0,17.32329249559777,9.925499231950845
369.0,12.774567335213593,9.260708034151394
370.0,10.993499245891611,7.61579854894037
371.0,8.876540563712355,6.940022462061508
372.0,8.914273428984423,5.4763054875217065
373.0,7.324648235229539,5.914343219951329
374.0,8.35609756097561,5.2066089693155
375.0,6.701888276947286,5.268607395751378
376.0,8.944177812745869,6.4958300550747445
377.0,7.869807238394964,5.923760818253344
378.0,30.478202390318835,11.115912667191187
379.0,22.71963114907647,8.3220692368214
380.0,15.85856655801581,10.331235247836348
381.0,11.056760705855906,9.244464426211081
382.0,9.423588475516091,9.046457607433215
383.0,8.159323367427223,7.122756734479786
384.0,6.815068749765839,7.601700947885055
385.0,6.828088119590873,7.193660784534112
386.0,7.40290734704582,7.7051253231426315
387.0,7.975647221910007,5.8252969165636355
388.0,8.17193061331535,5.995653965756247
389.0,7.741111235997153,6.5554306695140685
390.0,8.711569442883368,7.024259113558877
391.0,7.816230189951669,7.938780862463003
392.0,7.509422651830205,7.050466449364954
393.0,7.131973324341539,11.029560526020006
394.0,6.658929976396538,8.99988760256266
395.0,6.348896631823461,8.495489116181485
396.0,5.470915289798059,7.347620488611835
397.0,8.11539470233412,6.827075389860598
398.0,8.643456595856282,8.211334705158466
399.0,7.808510359297141,9.128641388771207
400.0,6.695384211906635,6.951820694385603
401.0,8.704681353265146,9.735877261998425
402.0,8.838016559889102,9.558952455884006
403.0,7.807757296466973,10.90599078341014
404.0,7.895637106140646,9.295658648982803
405.0,6.696205649844517,10.685329324491402
406.0,7.098467648270953,13.61084822599378
407.0,9.462060245026413,17.01510153235173
408.0,11.88411824210408,18.961061781124723
409.0,11.504136225694054,19.239303510546627
410.0,12.078104979206472,16.32253193960511
411.0,11.505848413322843,15.336484208160053
412.0,10.385000561987187,16.00540631673598
413.0,11.637425536697764,12.529060357423848
414.0,9.941965456520926,14.299745232475365
415.0,9.2394440073433,16.778651980068187
416.0,8.347495410437975,17.22056123787044
417.0,8.010175714660372,16.481563073695256
418.0,8.403042223970626,15.37925517964857
419.0,7.770338316286388,14.332100708103855
420.0,6.932612116443744,12.368095987411488
421.0,8.40241935483871,14.429838709677417
422.0,6.745377655389457,14.161113296616836
423.0,7.138414634146342,15.69144374508261
424.0,6.232637838164982,15.385165627710865
425.0,5.778012467469588,15.584921523532852
426.0,5.853522362767052,13.164638181121266
427.0,6.43045905707196,12.53794458229942
428.0,6.4736972704714635,10.547601323407775
429.0,6.020180959874114,14.08259244689221
430.0,5.86573564122738,12.647344610542879
431.0,5.905593213500373,15.781871230002622
432.0,6.440699832556637,14.755854969840021
433.0,5.326686321808273,15.12498969690158
434.0,5.947371485058346,13.800496422014913
435.0,7.816447347564578,13.82969352965419
436.0,7.387414296954029,10.805746318983926
437.0,7.747105765988535,12.850511408339889
438.0,6.827469933685512,10.651830204937994
439.0,7.47420478813083,14.215840545502228
440.0,8.793338578547075,15.598403956389795
441.0,8.278801843317972,14.857142857142858
442.0,7.302611367127496,14.844854070660523
443.0,8.504121239369075,14.672099209471357
444.0,8.137611929114684,14.063673148252219
445.0,8.24901652242329,13.469240567981716
446.0,7.419055112210108,15.774482035142931
447.0,6.729189614476789,13.802832415420928
448.0,7.506766325727773,17.59952793076318
449.0,6.58273013375295,15.122580645161293
450.0,6.484677419354838,14.138709677419355
451.0,7.27741935483871,12.315322580645162
452.0,5.734677419354838,13.410483870967742
453.0,5.649193548387096,13.20241935483871
454.0,5.7,12.899999999999999
455.0,6.371459480723839,14.067958300550746
456.0,6.300533887827358,13.66898299052115
457.0,6.359137911655614,11.943765688808961
458.0,8.249730246150389,14.790431231501254
459.0,8.505241467161214,15.548364617286726
460.0,8.821351766513057,16.68463901689708
461.0,7.995929339477726,13.684101382488478
462.0,9.333782923082687,13.195964931999551
463.0,8.290547375519838,11.993143756322356
464.0,8.121617773781423,15.39995129444382
465.0,6.469963658161927,16.32654452811809
466.0,7.352032520325203,16.609047993705744
467.0,7.441555205874639,16.70719905586153
468.0,7.537981904012589,17.84069630212431
469.0,8.94722709758115,15.976479251144868
470.0,7.438916459884203,12.367783291976842
471.0,7.354942100909843,8.933891645988421
472.0,9.06416459884202,8.997994210090983
473.0,7.9187758478081065,8.055045492142266
474.0,6.96774193548387,7.875
475.0,7.220967741935484,9.26290322580645
476.0,9.518548387096775,11.685483870967742
477.0,10.476261373035566,13.169995864350703
478.0,9.115550041356492,13.58701406120761
479.0,8.342452440033085,13.466087675765095
480.0,7.728887510339122,13.258850289495449
481.0,7.353556658395368,12.986683209263854
482.0,6.727989771833202,12.704996066089693
483.0,6.739004720692368,12.021341463414632
484.0,6.873623131392604,10.22932730133753
485.0,7.639752163650669,13.07533438237608
486.0,6.210070810385522,12.840283241542092
487.0,6.358772619984264,12.889693154996067
488.0,7.285077366902701,11.249986886965644
489.0,7.633696751714061,12.245352365966056
490.0,7.8864785882881865,11.028655726649433
491.0,7.699055861526357,9.57515360983103
492.0,6.237214791502753,8.292720392641714
493.0,7.5439286650931034,8.207598066764078
494.0,7.121426698137949,9.152186130156231
495.0,6.312090217676371,9.928571428571427
496.0,5.629777827732195,10.418125960061444
497.0,6.079547412985651,11.053074069911204
498.0,5.880843730096287,11.084758907496909
499.0,6.973363680641414,10.979905211494511
500.0,7.009498520100408,9.149905398823574
501.0,7.12472368963321,8.957397624667491
502.0,6.23517290472444,13.349282529691656
503.0,6.826083698625005,12.967324191675097
504.0,6.0530890562361845,11.067060994342661
505.0,5.765254205537447,11.723449852010042
506.0,6.493169982391068,14.732692667940505
507.0,8.459559402045633,12.395672698662471
508.0,7.560228166797796,14.580999213217938
509.0,8.615676632572777,13.561939417781273
510.0,7.617623918174665,14.250196695515342
511.0,7.6955153422501965,12.256490952006294
512.0,7.172155408190026,10.742572402682551
513.0,7.705631111610654,13.004683226555768
514.0,8.306395414184557,14.383537522011165
515.0,8.544677981342025,15.996740474317187
516.0,7.583904686973137,16.036922558165674
517.0,7.5784346783559995,14.382132554044436
518.0,7.368326402158031,12.793600839234198
519.0,6.92082724513881,10.737791765014425
520.0,7.571780750065565,8.36735978419692
521.0,7.983766063467087,8.320579970776667
522.0,8.099887602562662,8.06061219137537
523.0,7.952401558577797,12.781458169420404
524.0,7.596755460642164,11.257408864411225
525.0,10.104829343224308,13.010040837735566
526.0,8.629088456783185,12.733318347008355
527.0,10.224851073395527,14.33282754486531
528.0,9.59514443070698,14.149900715597017
529.0,8.369562773968752,11.916020381401971
530.0,7.248068637368402,10.730590835862275
531.0,8.190985725525458,12.59359334607171
532.0,7.648600651905136,12.753523659660559
533.0,8.377065302911094,14.588512981904014
534.0,10.002458693941778,15.98780487804878
535.0,9.101978194897157,15.862028399085833
536.0,7.024002472743621,15.918268330148738
537.0,7.423389906710127,14.761258476640066
538.0,9.293953017871193,15.865306657674871
539.0,7.790721591547713,13.436744595556554
540.0,6.067722265932337,12.472324940991346
541.0,6.6423288749016525,12.172856018882769
542.0,8.94822974036192,12.262273800157356
543.0,7.744335169158143,12.202360346184108
544.0,8.287411487018096,11.925255704169945
545.0,11.248366490577347,13.787269116930801
546.0,9.306095687684987,14.134801993181224
547.0,7.815203626690645,13.512719643325465
548.0,8.457562474242254,13.872016784683975
549.0,8.606830017608932,12.438368738526094
550.0,7.906052602000674,11.457392004795622
551.0,6.956313926042486,15.302812745869394
552.0,6.659323367427223,12.516915814319432
553.0,6.8851298190401256,13.797010228166798
554.0,9.89771833202203,12.876475216365067
555.0,9.538945712037766,15.118332022029897
556.0,10.890037840470569,14.834895657712337
557.0,12.715615750627553,17.409448877898917
558.0,10.267957363905435,15.971679592371961
559.0,8.463325652841782,14.270890937019969
560.0,8.419969278033793,14.149155145929338
561.0,9.125345622119816,14.798924731182797
562.0,10.43548387096774,15.843548387096774
563.0,9.814516129032258,13.532258064516128
564.0,8.474193548387097,10.383064516129032
565.0,7.469354838709677,10.331451612903226
566.0,8.271774193548387,9.975000000000001
567.0,7.62258064516129,12.210483870967742
568.0,5.873800661703887,10.541273779983458
569.0,7.699400330851943,11.783540115798179
570.0,8.742097883757994,11.288150860416794
571.0,8.172661845104802,11.3698818818213
572.0,6.677941858823054,9.667818596300107
573.0,7.386349331235247,12.922462627852084
574.0,7.631077891424075,12.176553894571203
575.0,6.088945712037765,14.021400472069237
576.0,5.661485144805365,13.020377655389456
577.0,5.6289329736615334,13.40279307631786
578.0,6.399438949458618,13.443332022029896
579.0,6.9920197819489704,12.607245888127085
580.0,7.234404855569293,12.306770072309018
581.0,7.427110261886028,12.91528979805927
582.0,9.326694391367877,13.257487542617362
583.0,7.231167809373947,12.693889325990035
584.0,7.7479974523247535,11.683593720729835
585.0,6.012865759994005,11.930152485856656
586.0,5.749213217938631,11.128363493312353
587.0,5.8705743509048,10.015794649881983
588.0,6.219158143194335,12.243784421715185
589.0,6.989516129032258,12.36209677419355
590.0,6.7145161290322575,12.79758064516129
591.0,6.506451612903225,12.61774193548387
592.0,7.270161290322581,13.646774193548385
593.0,7.822521636506687,11.94124704956727
594.0,10.48263178599528,15.176671911880408
595.0,9.009461054287963,14.072206923682138
596.0,8.520264321306808,11.00240530515904
597.0,7.505224607545614,13.135152298527593
598.0,7.9363259151024685,9.975522648083622
599.0,7.762035892248322,9.439679105316399
600.0,7.975103967629538,9.266325727773406
601.0,8.356599602862387,12.011427072796074
602.0,8.337079914577947,8.684575325015924
603.0,8.074519500955379,9.568094114120864
604.0,8.68320782286164,11.068468772245327
605.0,10.759806676407777,11.824940991345397
606.0,10.400640665392828,14.477202053126522
607.0,8.390431231501255,13.31557453823386
608.0,8.475884985719762,12.41985630419934
609.0,7.3533634212627135,12.71858275477473
610.0,6.168770804333353,12.029030240674615
611.0,7.361804757005386,11.48147027375981
612.0,7.086724565756823,16.03829611248966
613.0,7.625,13.30483870967742
614.0,8.187903225806451,13.707258064516129
615.0,7.291728701406121,13.32690239867659
616.0,8.371670802315965,17.503370554177003
617.0,8.129659161976235,13.446679376223043
618.0,7.868458613246182,14.642694526821199
619.0,9.510438984042445,13.920137585991245
620.0,10.090892997639653,12.656058221872541
621.0,8.481156569630212,12.101691581431943
622.0,7.288099921321795,14.745495672698661
623.0,8.295259638080253,14.345731707317071
624.0,7.710936270653029,13.140204563335956
625.0,7.7264358772619985,14.945790715971675
626.0,7.52765538945712,14.55786782061369
627.0,7.894374508261212,15.524744295830054
628.0,8.87326252294781,14.258531902139296
629.0,8.927990708478513,14.506013262897605
630.0,8.479037877936383,15.612228841182421
631.0,9.282791952343487,15.234648383350194
632.0,8.82258064516129,13.827188940092165
633.0,7.727117755048518,12.204713199205724
634.0,7.156213704994192,11.455097223783298
635.0,8.849162639091828,11.978813083061706
636.0,12.103536772694916,12.091173054587689
637.0,10.046008017683864,12.368551197032707
638.0,9.735828556442247,13.225581656738226
639.0,9.073882582143794,12.066389419654566
640.0,9.315462140796523,14.893147502903602
641.0,9.954966093439737,14.449645948072384
642.0,18.92240830242404,11.95560301225132
643.0,20.02335993406017,14.023041474654377
644.0,16.2301899516691,12.390168970814132
645.0,12.814562961297815,9.37728073133266
646.0,11.43224307819115,8.432879997002734
647.0,11.841951777142892,7.3630559207746185
648.0,10.21907262529918,7.81016682742114
649.0,14.963222948594291,7.246097238595363
650.0,24.014092808916512,6.707551887971992
651.0,17.128782195548887,6.4985532097310035
652.0,11.82465259171936,5.505572821776873
653.0,8.86432322366306,6.014588141808971
654.0,7.804665452077305,5.90821572989066
655.0,8.076467723202578,5.661571316173991
656.0,8.065078116218949,5.359634333670526
657.0,7.386085197257502,6.395226855494361
658.0,11.362781461916,6.38479262672811
659.0,11.440223296242177,5.703533026113671
660.0,8.694728560188826,5.578172417668878
661.0,9.467977970102282,4.952028773743959
662.0,27.151152073732717,6.093394777265745
663.0,19.60015360983103,6.679569892473118
664.0,12.017113206873145,7.47142499910692
665.0,8.504248035005267,10.130855056969818
666.0,8.217043372341344,11.532900646764478
667.0,9.34008850644717,9.827894255793915
668.0,8.197694022808838,8.029154501168845
669.0,7.956239931062905,7.753887078041287
670.0,9.322730508411073,5.764040313214192
671.0,42.33563748079877,5.963320969615227
672.0,29.7925374200693,7.628286427007449
673.0,24.217697281463224,7.559534918572849
674.0,27.494409316614867,6.620397259593644
675.0,18.34570227922834,5.813252093511183
676.0,12.900725181295321,5.360590147536884
677.0,11.938484621155286,8.491069195870395
678.0,9.312391686771868,10.860189350473506
679.0,8.30058908455337,10.634011725927998
680.0,7.475722589183881,10.309915457958567
681.0,7.274770521898767,10.920224045558427
682.0,6.5036978756884345,10.598801094001722
683.0,6.363965381589299,11.979258926229814
684.0,7.845577160840733,14.008446667415983
685.0,8.029266419392304,12.154442508710801
686.0,6.873196957776029,10.220212805814693
687.0,6.186401783372672,10.029461241617025
688.0,5.388707804128733,11.177288224495149
689.0,6.183293994230265,12.984496646809784
690.0,8.305548686823274,13.503001011576936
691.0,7.543711363380915,13.71309804803117
692.0,7.711273462965044,15.52216664793376
693.0,12.277998201641003,17.343049155145927
694.0,9.048330898055525,17.132872503840247
695.0,11.656653928290435,14.904377880184331
696.0,14.100408377355661,16.77880184331797
697.0,12.889810431702001,16.731788347783812
698.0,13.269996070446183,17.313685564248203
699.0,11.873861322473475,18.584646161540384
700.0,12.012967527596185,16.669435215946844
701.0,10.205408494980887,13.848926517343621
702.0,12.7073732718894,16.12980030721966
703.0,9.805022684242488,12.852998964026721
704.0,8.299592755331691,14.451845104133175
705.0,7.464986891322134,12.89299197621705
706.0,7.344469392609476,13.1255919380542
707.0,8.098501977410729,13.639984909119265
708.0,7.635495110711476,12.376512682177513
709.0,8.032033269641452,15.058072009291521
710.0,7.949271289947923,10.5764864561088
711.0,13.953392529316998,10.612790828369114
712.0,10.99580818549585,12.181757111751805
713.0,8.881853738695998,13.868219232508475
714.0,8.047685701913283,14.261682580923974
715.0,6.7173256728816355,14.771778310431266
716.0,7.121841435968748,17.610908824767165
717.0,7.559795436664044,17.517346671162564
718.0,7.4677700348432055,14.298068637368402
719.0,9.105541193660784,13.09209096699262
720.0,7.699898842306395,16.2112697163838
721.0,8.148297178824322,14.477468060394889
722.0,7.2558952455884,15.519736989996629
723.0,8.902832415420928,15.140283241542093
724.0,7.725059008654602,14.1124704956727
725.0,7.550570416994492,14.501160503540518
726.0,7.572462627852085,12.434854445318646
727.0,11.588355625491738,9.839771833202203
728.0,10.25755663822147,15.085580705682986
729.0,8.5824073513688,15.138758094776977
730.0,8.069567168996752,13.507695333777159
731.0,8.789219068369343,12.894976699146643
732.0,8.895947063688999,12.661414392059553
733.0,8.6588512981904,11.292820613690008
734.0,7.7680959874114865,11.004346970889063
735.0,8.791223345235933,12.283387298513183
736.0,7.830289091972805,12.589677520224333
737.0,6.876434868567047,11.387177469789584
738.0,6.36016865379572,10.805783856846013
739.0,6.385277088502894,9.472994210090985
740.0,7.138709677419355,9.447580645161292
741.0,5.766935483870968,10.851612903225806
742.0,5.289516129032258,12.163709677419355
743.0,6.4768095987411485,12.765086546026751
744.0,6.415881757895919,9.99796185980293
745.0,6.4408480386647184,13.22889831778502
746.0,8.518446292757858,11.712932261811098
747.0,8.090674759282155,14.49235322767974
748.0,6.9438424937244765,13.175366228316658
749.0,8.887051815218612,11.041984189427147
750.0,6.89395863774306,13.504469671424825
751.0,8.157808811959086,12.915445281180922
752.0,6.465354143413902,12.014568101955803
753.0,8.102932963205959,14.171684035991577
754.0,10.256919630604514,13.554352002634804
755.0,9.951827242524917,12.553299039045474
756.0,10.64491122780695,13.760797342192692
757.0,11.148073603766795,14.112737243544334
758.0,13.701532961637621,15.397382446656962
759.0,11.652993823368734,14.422961576631092
760.0,9.654837925509252,10.97991396803905
761.0,13.63904686973137,11.94667116256416
762.0,15.435023041474656,14.928725038402458
763.0,13.755453149001536,10.44715821812596
764.0,11.920484432954929,8.833897193810648
765.0,43.4125295043273,7.327124311565695
766.0,48.05218079848292,6.365785067279953
767.0,30.33488268877726,7.654253666606144
768.0,20.041634892775726,6.731965542980491
769.0,13.685254897213984,7.186596461498113
770.0,10.867411083540116,6.217609796445359
771.0,8.277458693941778,5.774704956726986
772.0,14.973111723052714,6.049429583005508
773.0,18.947285601888275,5.1589299763965375
774.0,18.607508148814205,6.523921921246862
775.0,14.276767449702145,5.938278820576224
776.0,9.868517477801506,5.690225169532802
777.0,14.244644262110823,6.153137761792364
778.0,26.765366602974783,5.84564834588438
779.0,18.35311340901427,9.222747368026676
780.0,13.452324753662282,11.800044958974935
781.0,8.591173054587689,10.92443145629613
782.0,7.292046008017683,9.900059945299912
783.0,6.597725215275944,9.56649658930412
784.0,6.747403314243195,12.12771834073501
785.0,6.3318429781661445,10.456500884803082
786.0,8.758274934587305,8.273297418431262
787.0,8.183903118636803,7.619826559427313
788.0,21.245918622512768,7.607576981353352
789.0,30.798842567784803,5.767690180384817
790.0,24.72814632229486,6.340085021255314
791.0,18.946236559139784,5.736559139784946
792.0,25.602768723539768,8.432411674347158
793.0,16.09593121276835,8.602918586789553
794.0,11.764171443557753,6.862519201228878
795.0,8.596193473455472,5.2070173466711624
796.0,6.732044509385185,4.5459817916151515
797.0,5.412993143756322,3.88911992806564
798.0,7.672440148364617,6.322899104567082
799.0,8.295082612116444,8.718922108575924
800.0,7.447069236821401,9.474645948072384
801.0,5.7440991345397325,9.203048780487805
802.0,6.869630212431156,8.57128245476003
803.0,8.501691581431944,8.608929976396539
804.0,12.59758064516129,14.502419354838711
805.0,12.27016129032258,14.870161290322581
806.0,10.324272226593234,15.551612903225806
807.0,9.770200629425648,15.869354838709677
808.0,7.999213217938631,12.556451612903224
809.0,6.069767899291897,11.876612903225805
810.0,5.386900078678206,12.779032258064515
811.0,5.5778535980148884,11.08099669148056
812.0,5.608684863523573,11.451385442514475
813.0,6.701923076923077,10.20916046319272
814.0,6.632816377171215,10.816273779983458
815.0,9.095037220843672,10.825475599669147
816.0,9.240322580645161,11.167741935483871
817.0,7.030645161290322,12.216935483870966
818.0,9.451530190239867,10.688275434243174
819.0,11.657905142326857,9.653962658112933
820.0,10.136210635679557,10.831416812927433
821.0,11.39592789848494,11.527805180657264
822.0,8.871351046016663,8.505434848393149
823.0,8.82690794649882,8.25991345397325
824.0,7.84516129032258,8.737903225806452
825.0,7.593672456575682,8.622456575682381
826.0,7.98151364764268,9.882196029776674
827.0,7.360111662531017,12.164888337468984
828.0,7.756265508684864,11.513895781637718
829.0,7.983374689826303,11.827915632754344
830.0,6.805704169944926,11.162883556254918
831.0,5.002970102281668,10.021184107002359
832.0,4.752464313813645,7.927892360720842
833.0,6.0964622906597725,8.334609044247124
834.0,6.0500168596156,8.58124461428946
835.0,6.951781499381814,8.607658012063991
836.0,8.519950545127571,8.552845528455283
837.0,9.163201079015398,10.027574837960362
838.0,8.512835787344049,9.86532164399985
839.0,7.328998538833314,11.105087857330187
840.0,12.39913828631374,13.4615301037803
841.0,10.924588812708404,14.776005020418866
842.0,10.43118841557079,16.176020943389155
843.0,8.665018170919037,13.056386047731444
844.0,8.135869768835937,14.979112809561276
845.0,9.06294256490952,14.254917387883555
846.0,8.139204226143644,12.524596305870892
847.0,6.84258738900753,10.211700573226931
848.0,6.897868195271814,11.0286613465213
849.0,7.393072571278708,10.795605260200066
850.0,6.615975422427034,14.708028923607209
851.0,5.463901689708141,15.201940729084711
852.0,5.847664006593982,13.404274849200105
853.0,6.1923419879360075,10.55075493612079
854.0,5.247626540781537,10.238005320145367
855.0,5.1984002098085496,8.782495972425162
856.0,6.128155558053276,7.430802517702596
857.0,6.086428009441384,6.084756097560975
858.0,6.718214004720693,4.916168371361133
859.0,6.384677419354839,4.671774193548387
860.0,7.842151848937844,6.769138473642801
861.0,8.050904799370574,8.921400472069237
862.0,7.45265538945712,7.402104642014162
863.0,6.528717545239968,8.145239968528717
864.0,6.176239181746656,7.762391817466562
865.0,5.585365853658536,8.164594807238394
866.0,5.706530291109363,10.640912667191188
867.0,9.654209284028324,10.060031471282453
868.0,14.185914727810873,10.775510471694577
869.0,10.62384313412848,12.988060800043215
870.0,10.302431008448977,11.919846686410278
871.0,8.546030235781942,13.41766190676589
872.0,7.301283073381585,12.112300287615458
873.0,7.912368335986436,11.461502135115662
874.0,8.34959349593496,11.406166872728635
875.0,8.526244801618523,10.457007980218052
876.0,7.238245101345022,9.26896706755086
877.0,7.880259263422127,12.964744670488178
878.0,8.694653628563936,11.481585553182718
879.0,9.244895283054213,12.720261511370875
880.0,8.421715184893785,8.056648308418568
881.0,8.527380015735641,6.230055074744296
882.0,9.482199992506837,5.958959949046495
883.0,7.284845078865534,4.869409164137725
884.0,7.497875688434304,9.372108575924468
885.0,8.038709677419355,10.576612903225806
886.0,6.554735318444996,7.200434243176178
887.0,5.677770885028949,7.915942928039703
888.0,9.528804797353185,8.616439205955334
889.0,8.31641852770885,7.477977667493796
890.0,7.8654673283705545,6.662779156327543
891.0,7.126612903225807,9.953225806451613
892.0,6.141129032258064,11.780645161290323
893.0,6.597659323367427,9.771066089693154
894.0,5.841974822974036,8.624645948072384
895.0,8.957508148814206,7.975514218275823
896.0,9.021496009890974,6.347242516203964
897.0,8.376070585590648,5.614750290360046
898.0,8.535714285714286,6.642780337941629
899.0,9.266678482807515,7.846390168970814
900.0,8.969975186104218,6.85084485407066
901.0,7.410794044665012,5.809677419354839
902.0,8.264936754826605,4.546400472069237
903.0,10.54287544346553,4.631744782885617
904.0,8.284934060170094,9.497225656588363
905.0,8.129967030085048,9.210493237420854
906.0,6.8722415795586524,6.992746618710427
907.0,7.547843842493724,5.30054325428047
908.0,8.063335955940204,5.052635719905586
909.0,11.514714697838222,4.300436476714998
910.0,11.38127552358473,4.86540313214192
911.0,9.716355700423364,9.002420291484022
912.0,10.11446067091686,11.176829050468193
913.0,10.669740170234196,10.936565587389879
914.0,10.087174232582536,7.875732870499855
915.0,9.902209873025747,9.378520588335236
916.0,7.57935041251602,8.799409782759277
917.0,7.246749840770297,9.992581769135665
918.0,6.540369412910719,8.820594957101644
919.0,6.764040313214192,8.17949870742947
920.0,6.456520924656251,7.566707879060358
921.0,6.115994155333258,7.310479187741185
922.0,5.109924693716983,5.261455172155408
923.0,6.8323817016972015,9.873661533850361
924.0,6.62550297853209,9.335907234648381
925.0,6.124195421677719,10.280472818553068
926.0,6.7205406316735985,8.424695590273874
927.0,6.737768348881645,8.195195946199092
928.0,6.599932561537597,7.454452811809224
929.0,7.763852984151961,8.231160316211456
930.0,6.603815892997639,9.510818253343825
931.0,6.049193548387096,8.855645161290322
932.0,6.465322580645161,10.004838709677419
933.0,5.308064516129031,8.593548387096774
934.0,7.7122828784119095,9.034987593052108
935.0,5.355334987593052,8.35620347394541
936.0,4.9752481389578165,9.027295285359802
937.0,5.847704714640198,10.335421836228289
938.0,7.0363523573201,10.303598014888337
939.0,5.987903225806451,9.747580645161289
940.0,6.4927419354838705,11.212903225806452
941.0,5.871526054590571,11.736993382961124
942.0,8.904714640198511,15.810028949545078
943.0,11.908808933002481,13.72799834574028
944.0,14.01408188585608,16.934966914805624
945.0,12.170740785571628,13.326049547095968
946.0,13.949390243902439,13.17625885129819
947.0,12.07509834775767,16.297403619197482
948.0,9.85395357985838,12.871125098347758
949.0,8.235090479937057,9.804642014162077
950.0,9.793784421715184,8.092722265932338
951.0,9.142604248623131,12.170279307631784
952.0,7.943351691581432,13.727773406766325
953.0,9.05544940242029,12.080663894196546
954.0,10.351878910494174,11.983440110898805
955.0,12.48956577123375,14.698137949121426
956.0,10.970701734667117,12.262223221310554
957.0,8.840245775729647,10.503072196620582
958.0,8.349462365591398,8.315668202764977
959.0,7.675883256528418,9.22811059907834
960.0,6.928517843746651,10.016129032258064
961.0,7.869226888603684,12.109962159529427
962.0,10.843215594839476,15.520418867783148
963.0,9.724884182718153,12.88344385748005
964.0,8.28640522499963,13.748941590798395
965.0,8.917949870742948,11.108725787718708
966.0,10.258345509722378,10.878910494174065
967.0,7.529249559776703,13.745599640328201
968.0,7.966928639155232,13.458922195035491
969.0,8.272865241236602,13.476619315643706
970.0,6.642039379450867,13.206896447376383
971.0,6.332821420645969,14.297783392846336
972.0,13.420370594524805,14.291023623635741
973.0,14.058406968064716,15.01201305251266
974.0,10.869673586314025,16.213117069135954
975.0,12.21628840606024,15.474300470051848
976.0,11.234029332849158,16.007409873106177
977.0,10.081117230527143,17.049527930763176
978.0,9.993154996066089,13.446223446105428
979.0,11.388394964594807,17.437745869394178
980.0,9.055718219624593,13.225650968491252
981.0,7.596503503053463,8.693854670113522
982.0,8.193108163800531,7.544026076205462
983.0,10.01472874751789,10.735427672249074
984.0,9.239987261623767,9.214641639503952
985.0,7.801637256003896,7.91223633434491
986.0,8.518714173316848,6.487992207111011
987.0,7.4029448128582676,7.188527968228991
988.0,6.69225973740822,6.432369852044893
989.0,6.1783860599296165,5.816939862143236
990.0,8.233586271132243,6.327440745203722
991.0,7.3556376899102816,6.959569160582828
992.0,8.424356089022256,6.8699918882159565
993.0,22.42307005322759,6.460698798392977
994.0,24.32690588706727,7.227094982488099
995.0,17.73833773616036,7.275989887557413
996.0,15.608200751486573,6.060609308171198
997.0,33.33612623935205,6.422706325932133
998.0,19.960832740652695,6.078552105558858
999.0,13.68440324366806,5.615243096488408
1000.0,49.083753081127426,5.8970992748187046
1001.0,56.41399635623192,5.793787732647448
1002.0,33.4846385812481,6.828359528906617
1003.0,21.757652392192124,8.243640178337266
1004.0,17.15773107039826,7.398467648270952
1005.0,10.463283503802781,6.733543141883031
1006.0,7.04185680566483,6.307631785995279
1007.0,6.981589299763965,7.8363493312352475
1008.0,6.220613690007868,7.132100708103855
1009.0,5.30543888317295,8.119410316931953
1010.0,5.404017631987734,11.394008856341665
1011.0,5.761233835663418,9.315857693316387
1012.0,10.624598035062235,9.217330892291553
1013.0,10.215524823982731,8.0518106074361
1014.0,9.17422820426361,6.731328912367465
1015.0,7.517356037615675,8.062438649732119
1016.0,7.0538786482334865,9.953878648233488
1017.0,7.106023277797471,10.467479026349993
1018.0,9.728985281699678,8.546927947478695
1019.0,9.052936311000828,6.689484355141318
1020.0,9.379398918679012,7.118325969860194
1021.0,8.933881486989275,8.027903384315657
1022.0,9.04293582106328,7.324791128095612
1023.0,7.558840058446667,11.712749615975422
1024.0,7.041336118001626,10.627302295957264
1025.0,5.997064597159743,9.168883248686736
1026.0,6.412548259015973,10.10372715130002
1027.0,10.445099950945924,11.554261387646562
1028.0,11.573061383812853,12.158158006400555
1029.0,17.280993593346068,15.475928215503354
1030.0,14.43231800981604,11.84099509197857
1031.0,10.766137963062194,13.725467081055978
1032.0,10.489799714737046,13.592398970822845
1033.0,8.361259304373132,10.926767841786232
1034.0,8.387740663388843,13.397884314284145
1035.0,9.2093624451409,14.195476569490804
1036.0,7.623918174665617,14.332171893147503
1037.0,8.907159716758457,12.651923869469108
1038.0,11.21932486605972,13.981491888651604
1039.0,12.606646435127946,12.509197856955527
1040.0,11.843449102693793,10.031939605110336
1041.0,12.054213030609567,11.1845565921097
1042.0,10.9502266681653,12.025439286650931
1043.0,8.961466411899142,11.736203214566707
1044.0,9.590948259713013,10.062418043535274
1045.0,7.6259225956314864,10.243246787306584
1046.0,7.132853770934023,9.94766026001274
1047.0,6.793750702483983,11.011127346296504
1048.0,6.476302873627814,12.274549473605335
1049.0,11.67363530778165,14.565846165374095
1050.0,13.786856992993894,17.45129444382001
1051.0,10.036410670611904,14.606090547026998
1052.0,9.545255651892067,14.02651011184852
1053.0,8.864756258751099,10.950106429046286
1054.0,8.820725216147242,14.017590634592445
1055.0,8.672114021536743,12.375243636693146
1056.0,9.98555867189794,12.929825226341428
1057.0,10.562287784489676,11.803238266012496
1058.0,8.504983388704318,9.888543564462545
1059.0,12.278998321008823,12.140535133783446
1060.0,10.530328575175153,13.735116706005769
1061.0,9.088587913528904,13.864186429882732
1062.0,10.043141883031733,15.790772170394515
1063.0,9.303829006031997,14.488704057547487
1064.0,8.636169495335505,13.401034056423512
1065.0,9.030534637143607,13.251133340826495
1066.0,8.657674871679593,13.512663444606796
1067.0,6.854951107114758,14.461784871304934
1068.0,5.7199617848713045,14.49840770297104
1069.0,7.271945599640327,13.343767562099583
1070.0,8.066501817091904,12.514592933947775
1071.0,13.153347570342062,9.205537447079541
1072.0,13.201865797459817,11.456071334906898
1073.0,10.973549136413023,10.631074144842831
1074.0,12.469858753887078,9.386347457944625
1075.0,11.76915439661309,11.251395601513618
1076.0,10.379041624517628,13.23078940466824
1077.0,14.347585328387845,13.54181559327114
1078.0,11.901135214117119,15.458311790491177
1079.0,10.448600651905137,16.307047319321118
1080.0,10.11784871304934,14.420085422052377
1081.0,11.567500280993594,11.524126109924694
1082.0,8.521612009810278,13.320313675309741
1083.0,8.464357763925033,12.212140652423894
1084.0,8.213689503520346,13.412128548084489
1085.0,9.348849079061509,9.147232645403378
1086.0,10.320018559987089,10.209405071718212
1087.0,8.552321007081039,11.042486231313926
1088.0,6.991660110149488,11.300393391030685
1089.0,6.90228166797797,11.568214004720694
1090.0,6.908513385381992,12.596449393774336
1091.0,7.312242530613892,12.474857269664508
1092.0,7.839834876636607,11.4950997599306
1093.0,8.217901309286045,12.012872460610462
1094.0,9.282644971079275,12.253421637371282
1095.0,7.919710763927915,11.097111385860401
1096.0,9.695328013187966,13.091828706305495
1097.0,8.650501911192084,11.836941378201693
1098.0,6.633622691387133,12.954953023970278
1099.0,10.81988354231415,13.342299860679455
1100.0,12.553763440860216,12.978708962955023
1101.0,14.450076804915515,12.735898260279354
1102.0,11.943789518808273,11.6780802343443
1103.0,10.257993069695996,9.078287429000106
1104.0,9.270167716145064,9.517385443921956
1105.0,9.632760106402907,12.411749278783109
1106.0,10.632662695290547,13.822464501142708
1107.0,7.997441085009928,11.536180735079238
1108.0,7.423682140047207,11.479150275373723
1109.0,11.140637293469709,11.707710464201416
1110.0,9.26512588512982,13.363217938631
1111.0,7.978127458693941,12.604996066089694
1112.0,6.932808811959087,9.133261211644374
1113.0,7.0183713611329654,6.952832415420929
1114.0,7.272757671125098,8.020318646734854
1115.0,6.26420141620771,6.490401258851298
1116.0,6.986998426435877,5.507218725413061
1117.0,6.7922895357985835,5.96369000786782
1118.0,5.736428009441385,5.457061369000787
1119.0,6.08514948859166,4.903127458693941
1120.0,7.0728166797797005,8.508418568056648
1121.0,6.798800157356412,9.892682926829268
1122.0,5.181628638867034,12.55987411487018
1123.0,6.630546813532651,10.25357985837923
1124.0,5.005000749316249,7.3645011427072795
1125.0,6.251133340826495,9.985987786145142
1126.0,10.982878123712112,13.355100970364543
1127.0,8.96131262780852,13.614196231984824
1128.0,8.337013695932693,15.802706774254538
1129.0,6.631640488519342,12.130232035360757
1130.0,7.864994123095233,10.016335529875501
1131.0,6.4323363070732835,8.294158905580055
1132.0,7.146803251335482,9.512073140236279
1133.0,6.661773718690997,11.129029818430219
1134.0,6.21659523698936,12.827955769430163
1135.0,6.23976890094944,10.38738465104081
1136.0,6.156568621517481,11.031051665355363
1137.0,6.74555417700579,12.089247311827958
1138.0,6.794954507857733,14.36559139784946
1139.0,8.272580645161291,15.62258064516129
1140.0,8.096732837055416,15.901426799007444
1141.0,7.757237386269644,16.074503722084366
1142.0,8.160070306038048,15.658622828784118
1143.0,7.771685428392745,14.80117412092235
1144.0,11.623598418366317,13.902239302790049
1145.0,15.749350904799371,9.584618410700235
1146.0,18.569855943951147,12.286856056348581
1147.0,18.384814241619907,13.190646804022098
1148.0,15.45597911136857,14.262121199021276
1149.0,13.318506958554165,14.206666609026954
1150.0,18.486058394791677,28.05141318162561
1151.0,19.289112146704596,36.06295697483738
1152.0,15.475703420628676,25.017121876287884
1153.0,16.211887902289163,23.94404480911168
1154.0,11.90509909707392,21.980854969840017
1155.0,9.517833726724364,18.54188677831479
1156.0,8.32996141021318,15.54244876550148
1157.0,8.618897755797834,13.727061556329849
1158.0,7.983102918586789,15.112903225806452
1159.0,13.157450076804913,15.519201228878648
1160.0,17.67181821587801,15.559720505039152
1161.0,17.812447885490535,15.02798478365236
1162.0,19.72565745966108,12.97307035818188
1163.0,15.849084222275078,13.839239426581383
1164.0,15.548198025116035,14.869696518206208
1165.0,18.111235125854634,14.862070918426472
1166.0,15.407241183118078,15.873610388659884
1167.0,14.5007619500694,13.8922770762377
1168.0,17.849012775842045,14.253268892135926
1169.0,16.935259076093065,13.075943201828332
1170.0,17.227342549923193,11.410138248847925
1171.0,17.205069124423964,17.968509984639017
1172.0,28.923869469109437,19.59357086658424
1173.0,40.71769510321831,15.349012775842045
1174.0,26.306334423327087,13.013957322083133
1175.0,29.3113853376236,13.302677585772749
1176.0,43.00131478862747,10.966238946496205
1177.0,39.53759868538563,11.449737434358589
1178.0,23.65846252503892,9.28278149676792
1179.0,17.003049717133116,9.126537034955604
1180.0,12.932936282851198,9.639233937404212
1181.0,8.865469677523912,7.142581638440968
1182.0,6.845083570544205,7.5410840079357815
1183.0,8.399444111899054,6.897944499190999
1184.0,7.512850338020044,7.072349969025357
1185.0,20.218723670464655,12.333779873539813
1186.0,27.602842348217713,14.083699496302646
1187.0,20.93360056041885,17.160485243262034
1188.0,15.787460802482851,16.097907752199376
1189.0,11.949994467257929,11.207993636039673
1190.0,8.06217268602865,8.459386275140213
1191.0,6.700860929518094,9.743321544671883
1192.0,5.485914335726789,7.622352016575572
1193.0,7.281359625620691,6.502113028257064
1194.0,6.478264208909371,6.70994623655914
1195.0,6.543990483683638,6.643299239444007
1196.0,10.183182533438238,8.881904012588512
1197.0,12.088768686073957,11.325629425649094
1198.0,13.226239181746655,12.332572777340676
1199.0,14.136428009441383,11.19110936270653
1200.0,15.091424075531076,11.838119590873328
1201.0,13.59215962527217,12.149275886044682
1202.0,15.042085957029327,9.911792320902524
1203.0,12.232102886348766,11.380550538331446
1204.0,10.252857857321473,7.950662665666416
1205.0,10.131997285035544,7.377558675383131
1206.0,9.225825184519126,7.466449364954478
1207.0,7.822749241317297,6.703270765426548
1208.0,9.875014049679667,7.084466674159829
1209.0,10.116923307481922,8.795612753362555
1210.0,9.82313139260425,9.56270653029111
1211.0,9.769000786782062,9.986073957513767
1212.0,9.524311565696301,10.483359559402045
1213.0,9.57741935483871,10.84758064516129
1214.0,10.967191188040912,12.168351691581432
1215.0,10.276848937844218,12.326809598741148
1216.0,8.886429018136335,13.434424236922268
1217.0,7.819611047227097,14.800679860396619
1218.0,7.78407587691616,14.225915967064669
1219.0,7.294083571817639,14.878103538213686
1220.0,7.953268603937368,15.447725104688125
1221.0,7.228354126859241,14.12558540331947
1222.0,8.65302911093627,12.60503540519276
1223.0,8.11558203139635,12.680004495897492
1224.0,11.372503840245775,12.42261436439249
1225.0,15.327496159754222,12.225746506312987
1226.0,12.861545090105277,12.163620696114794
1227.0,11.116443745082613,10.205822187254132
1228.0,9.242328874901652,11.064516129032256
1229.0,9.312140652423892,11.527930763178599
1230.0,9.343973552018399,12.277675059008654
1231.0,9.448196453428555,11.646498819826908
1232.0,9.683578950553773,12.977458693941777
1233.0,8.206708830115597,9.250826121164437
1234.0,9.467173391780001,10.441081263347195
1235.0,8.37108669589,11.539895470383275
1236.0,7.241178674459555,14.063791165561424
1237.0,9.357646772320258,15.023477014724063
1238.0,10.333393278633245,16.21817091903638
1239.0,9.484592184631524,15.753555505601138
1240.0,11.026205462515454,14.615909857255254
1241.0,10.279147465437788,12.610023041474655
1242.0,11.910752688172042,9.28010752688172
1243.0,18.54002098085497,11.65384118242104
1244.0,14.920403881458167,10.907103518039788
1245.0,10.528942340114643,14.42859016147765
1246.0,10.752950432730133,13.541099996253418
1247.0,10.59076093065078,12.187216664793375
1248.0,9.503877711588176,11.140421865048143
1249.0,11.292945187516391,13.416095313026863
1250.0,16.169027012850773,14.615919223708367
1251.0,18.21853808399835,12.585609381439436
1252.0,14.555505601138961,12.00670638042786
1253.0,12.697894421340527,12.497845715784347
1254.0,10.292495597767036,12.523884455434416
1255.0,10.340582968041662,13.458244352028773
1256.0,19.692948934097636,14.32436027125248
1257.0,15.12180135626241,14.304746918436926
1258.0,11.749541043797535,15.31293319845641
1259.0,9.370162226967892,14.11307182196246
1260.0,14.847551609156643,12.060469821288073
1261.0,18.29013525158293,8.749128919860627
1262.0,19.76428384099509,13.607976471469783
1263.0,17.19821288074632,15.19077591697576
1264.0,18.931287699973772,13.74054924881046
1265.0,20.350043085684312,18.00001873290622
1266.0,19.463751826458356,16.88857667378517
1267.0,24.551271964332546,12.831516241429696
1268.0,21.345359859128546,9.03336330598329
1269.0,21.638155183395153,11.971956839384063
1270.0,20.84178187403994,12.569330485931587
1271.0,17.62800194822225,15.39931062905099
1272.0,13.199524184181932,15.987617548986549
1273.0,10.954216777190812,14.550297853208948
1274.0,9.818553070323329,14.028286688396838
1275.0,8.91077516765951,13.556217451575437
1276.0,9.935933460717095,12.490202690045333
1277.0,11.801864229123481,9.126315551013189
1278.0,10.035865238086526,6.923503959613596
1279.0,9.110866566815918,5.5781114268114065
1280.0,10.110579212747439,7.042358324772831
1281.0,8.879837206688432,8.23046319071057
1282.0,9.184393183527723,8.357734528780949
1283.0,37.77457267358919,6.911518719937288
1284.0,23.270926889789987,7.847310819262039
1285.0,17.160866670701445,6.403494119308439
1286.0,37.20372208436724,5.706782464846981
1287.0,32.659205350118015,7.085955940204563
1288.0,19.63151062155783,5.7713611329661685
1289.0,12.639059694567168,5.578257075995078
1290.0,8.231626621477133,4.4879188605781835
1291.0,9.177487657896783,5.306824253637785
1292.0,8.654589994322489,6.572204978341878
1293.0,9.475753278979084,6.101583362873685
1294.0,8.036943164362519,7.300230414746544
1295.0,7.940245775729647,6.0847926267281105
1296.0,8.519354838709678,5.447311827956989
1297.0,8.628725038402457,5.1284178187404
1298.0,8.639554531490015,4.357834101382489
1299.0,8.278302611367128,6.507872503840246
1300.0,8.9870171593421,5.567931137836724
1301.0,9.752590760930651,5.335540069686411
1302.0,12.709551908883142,9.44027387508898
1303.0,10.242777528005695,8.324523247536622
1304.0,10.233082312389943,6.887261623768311
1305.0,9.180506537784272,6.633402645086359
1306.0,9.221282454760033,6.021616837136113
1307.0,8.528245476003146,5.666876475216364
1308.0,8.1162077104642,4.632415420928403
1309.0,7.947895357985837,5.751475216365066
1310.0,7.416286388670338,5.251140833988984
1311.0,6.7286501067775655,5.500071185043647
1312.0,5.8516241429695395,6.9368401333782925
1313.0,7.232657075418681,11.641512120190326
1314.0,9.292961110486681,11.13625566670413
1315.0,8.98639991008205,8.535869768835937
1316.0,8.742508710801394,11.065707541868044
1317.0,8.624940991345397,13.39921321793863
1318.0,8.509480723839497,13.332651455546813
1319.0,9.583064516129033,12.393548387096775
1320.0,9.390219189412736,10.52179487179487
1321.0,10.210835401157983,9.264929693961953
1322.0,11.963482216708023,11.956658395368073
1323.0,8.91785440497085,11.301952329076641
1324.0,7.282815872823741,9.557968690108737
1325.0,8.66723052714398,9.99097167584579
1326.0,11.40861526357199,12.450727773406765
1327.0,12.760720842231464,8.483293994230264
1328.0,18.499426773069573,9.84428459031134
1329.0,20.057738563560747,11.768326402158031
1330.0,17.35105653591098,13.643239294144093
1331.0,23.33063579483721,9.509254055674198
1332.0,16.48866659173504,15.306470345809448
1333.0,14.707466936420516,16.566445618373233
1334.0,15.086789554531489,13.816436251920123
1335.0,13.2387134240006,9.404818103480574
1336.0,10.993012625978796,6.636817653890825
1337.0,9.719474729309505,5.201805852159905
1338.0,10.033719231201529,4.960312464875801
1339.0,9.0698269079465,4.6418961447679
1340.0,10.383420441347269,4.484036753962009
1341.0,8.80446592484358,4.583117904911767
1342.0,9.212618485631861,5.180622681802855
1343.0,8.431793488441798,5.235809823536023
1344.0,8.689651942602374,7.079296392042261
1345.0,9.14951821579088,6.890226912128729
1346.0,54.337319521518005,7.191788365209769
1347.0,50.13183653056121,7.020326510198978
1348.0,35.01791519308398,5.452559568463544
1349.0,28.326545922194835,6.0377237166434465
1350.0,17.33749508805773,6.20535491015611
1351.0,15.191817118042577,8.245244237888741
1352.0,28.33484329270471,7.253529845876103
1353.0,40.60721016491057,7.692433125703028
1354.0,28.907291718399982,6.245218098949824
1355.0,22.15295461496036,6.362240385880442
1356.0,45.488586432322364,5.525309898903297
1357.0,35.95995427428286,6.495481013110419
1358.0,23.52948951523595,6.479548458543206
1359.0,16.978262422748543,6.331940127889116
1360.0,13.884929420508438,5.100854481913161
1361.0,9.164877456297871,6.343000384242402
1362.0,11.336531868158676,5.078435114004982
1363.0,15.526937919148777,4.72530066314488
1364.0,28.27473680266756,4.94492525570417
1365.0,50.91596792926454,6.550668764752164
1366.0,33.57403619197482,6.483398898505114
1367.0,21.27049567269866,6.489142407553108
1368.0,14.92738001573564,5.856845003933911
1369.0,11.525452399685285,6.49529897718332
1370.0,11.911113296616836,9.35047206923682
1371.0,10.17612116443745,9.65507474429583
1372.0,7.857061369000787,10.23375295043273
1373.0,9.461998426435876,9.74110936270653
1374.0,8.272305271439812,8.39455153422502
1375.0,9.86229346970889,8.093784421715185
1376.0,12.689201873639142,9.145335571697803
1377.0,10.370215376143687,10.004177002438762
1378.0,9.419362680391352,7.841135370950752
1379.0,7.986122837329541,7.321470611555327
1380.0,8.968277783731647,7.913685738507797
1381.0,8.983196583117905,10.11198531340152
1382.0,7.749260050204188,10.797478550822374
1383.0,7.462965044396988,12.128395339252931
1384.0,8.220298977183319,13.469708890637293
1385.0,7.738001573564123,14.037765538945711
1386.0,8.765853658536585,12.331077891424076
1387.0,11.644846577498033,8.406451612903226
1388.0,12.041463414634148,5.822265932336743
1389.0,8.767466561762392,8.71498819826908
1390.0,9.710483870967742,8.086290322580645
1391.0,11.394354838709678,7.393548387096773
1392.0,10.050652841781874,10.920506912442395
1393.0,9.330568356374808,12.022350230414746
1394.0,8.600768049155146,14.596658986175115
1395.0,8.677073732718894,14.043970814132104
1396.0,12.522503840245776,9.799769585253456
1397.0,19.586520737327188,12.167933947772656
1398.0,22.309984639016896,14.393241167434715
1399.0,18.783410138248847,12.833333333333332
1400.0,13.794069161889773,14.233468210258138
1401.0,11.607208422314638,13.849462365591396
1402.0,12.559364579820913,12.19585253456221
1403.0,17.289329736615336,13.435259076093065
1404.0,16.795586527293842,14.876999737739313
1405.0,12.629972649956915,15.097193810647784
1406.0,12.472251954706714,13.912715608545662
1407.0,11.96024272082494,14.53915350319756
1408.0,11.146289731773603,14.038420181968569
1409.0,9.981823821339951,13.868134822167079
1410.0,9.421960297766748,12.36430934656741
1411.0,9.739516129032257,12.466935483870966
1412.0,7.638709677419355,12.42983870967742
1413.0,6.9817617866004955,12.136579818031432
1414.0,15.383622828784118,11.94933829611249
1415.0,12.710359801488833,12.868217535153018
1416.0,11.176924589965502,12.815078476467146
1417.0,11.013788715873687,12.7193863964517
1418.0,8.310622494473792,14.677633846614963
1419.0,6.7898542579895835,11.449166385673074
1420.0,7.878798096736727,13.890712225094601
1421.0,7.597935633734217,15.891461541343523
1422.0,7.453448728035667,14.628114345659585
1423.0,8.711119853134015,12.393746955902738
1424.0,8.49121426698138,8.114392491851184
1425.0,7.455284552845528,9.669139410288112
1426.0,7.651455546813533,7.36270653029111
1427.0,9.162358098235359,8.578303548012439
1428.0,9.508336143269267,10.05129069723877
1429.0,13.015229852759358,11.376269154396613
1430.0,16.786800794275223,10.776460230040088
1431.0,19.60960623431119,11.125173279382564
1432.0,13.898505114083399,13.857517515267316
1433.0,10.025570416994494,13.855981416957025
1434.0,9.874920385148553,11.090049080214303
1435.0,12.330317335431419,10.67674497021468
1436.0,18.89016897081413,11.551309430144993
1437.0,14.509127281820454,13.841528326332453
1438.0,12.050393695984972,13.357821598256706
1439.0,11.419590089159922,14.444271782231272
1440.0,9.73283651923434,11.824670453327617
1441.0,11.368778605801275,8.393845848221638
1442.0,13.976658798846051,8.76610093289873
1443.0,15.634071409838521,9.582012663444607
1444.0,14.30397886928178,11.401221385485744
1445.0,11.88509235322768,10.368813457719831
1446.0,10.138248847926267,10.753456221198157
1447.0,11.841894271477276,11.255704169944925
1448.0,12.72432655202128,15.867483421377992
1449.0,10.211036208529483,15.281346469021436
1450.0,15.86588676785921,14.076925154633606
1451.0,18.068504059812863,17.66365458960559
1452.0,13.471510734826563,14.464848354945879
1453.0,11.224234630086094,14.571671489300897
1454.0,15.07573321901904,11.814717965205588
1455.0,14.914210695531025,9.78139892115886
1456.0,12.801477155003035,7.6619190511913695
1457.0,10.937229843175079,6.733524452541706
1458.0,10.802236273354053,6.801593255456721
1459.0,10.643660915228807,6.8033436930661235
1460.0,9.7749794591505,6.28492837495088
1461.0,14.403600464576074,6.003615450901052
1462.0,10.901877037203551,5.694972087969727
1463.0,9.798939717507773,5.75390581094751
1464.0,8.055307032332996,5.011131092877749
1465.0,8.639414034693342,5.546019257427597
1466.0,8.842602375332508,6.2289498332771345
1467.0,7.950871080139372,8.827608557191562
1468.0,9.03420816005395,14.55164849574763
1469.0,7.718755385710539,17.36848937844217
1470.0,9.438449290022854,14.024527930763178
1471.0,13.428633247161965,10.428258589037501
1472.0,12.085632666877519,8.381706903206638
1473.0,9.421201554744085,6.4277345468771365
1474.0,8.121891099952688,7.738060821825665
1475.0,6.689191025979492,8.13024205528734
1476.0,7.274165405462863,6.587164038396359
1477.0,6.894236276839244,5.486933928604103
1478.0,5.035914727810873,6.981431943351691
1479.0,5.117803754074407,6.0103780300475815
1480.0,6.23514105878386,5.057116631074145
1481.0,7.606103180847477,5.190596081076018
1482.0,8.186231313926044,5.233162863886703
1483.0,7.123878835562548,4.559067663257277
1484.0,6.999842643587726,5.138001573564123
1485.0,6.1140047206923684,7.624075531077892
1486.0,7.402950432730133,6.6166011014948864
1487.0,7.82252567128649,5.645459359680446
1488.0,7.90521444854647,4.6803909701628035
1489.0,7.40381690169259,4.351485807662047
1490.0,7.822994210090984,4.08014888337469
1491.0,9.100206782464845,4.065880893300248
1492.0,6.649193548387096,4.266935483870967
1493.0,7.183870967741935,4.615322580645161
1494.0,6.332258064516129,8.82258064516129
1495.0,6.4226013234077755,10.977047146401986
1496.0,7.702832919768404,14.454652605459057
1497.0,7.60101323407775,13.32289081885856
1498.0,11.521071133167908,12.788461538461537
1499.0,18.41980976013234,12.098263027295285
1500.0,21.392818740399385,13.780491551459292
1501.0,14.402929826533288,12.663062455509348
1502.0,11.04749166385673,11.539261361507624
1503.0,16.38764752163651,9.213159866621709
1504.0,13.77293103763746,8.01079973826209
1505.0,13.980310408612606,6.926112190068423
1506.0,11.613249131098105,5.375217497754229
1507.0,11.216089736719894,6.719894259279106
1508.0,13.01511092058729,8.284678312435252
1509.0,14.290751259243383,9.827635480298646
1510.0,10.90869145857893,7.611492158753974
1511.0,14.141749723145072,10.093380487979138
1512.0,13.226681670417605,11.379309112992534
1513.0,10.848140606580216,8.737005679991427
1514.0,11.683269249368092,6.428087858201485
1515.0,8.103825172320954,5.758905144404568
1516.0,6.227411818111323,5.0292989623712545
1517.0,7.787687775602437,4.1757524747040415
1518.0,8.701219512195122,5.7391030684500395
1519.0,22.160129819040126,18.141463414634146
1520.0,49.66353265145554,24.136860739575138
1521.0,35.31691581431943,20.58040912667191
1522.0,32.606298291270754,20.55456333595594
1523.0,49.14209485767314,17.398760818253344
1524.0,35.904288970929414,20.10350118017309
1525.0,28.679563840303416,97.539653815893
1526.0,22.746154854848797,152.7470102281668
1527.0,40.93499400547001,92.3335665580158
1528.0,76.19805365104342,52.52436589112435
1529.0,43.29666464961188,31.628256171185654
1530.0,26.39977241697184,22.04844068159897
1531.0,18.364232173025833,17.080877797846675
