time,emg_right_hand,emg_left_hand
0.0,9.341463414634147,16.853658536585368
1.0,8.002710027100271,16.046457607433215
2.0,16.642276422764226,12.46590343454455
3.0,26.470271632948887,18.071685168678933
4.0,19.27209764113502,17.6045788450597
5.0,16.416255631852216,16.3338356366095
6.0,12.420296711808612,14.133339083899894
7.0,8.896222313418075,12.913640431013677
8.0,8.40174590685999,13.412742122812933
9.0,8.581094751039677,15.870874077404368
10.0,8.99008654602675,18.698033044846575
11.0,6.650826121164437,14.467033831628639
12.0,6.7653029110936265,13.961998426435876
13.0,7.49948859166011,20.003658536585366
14.0,8.135582218725414,24.313237608182533
15.0,10.001837842199762,18.906132865298876
16.0,8.454105388448426,16.487684843349673
17.0,9.200439790998406,22.763197260384516
18.0,10.849531461195504,20.937588008634428
19.0,8.844523795113883,19.289761746252697
20.0,7.212667191188041,15.965145554681353
21.0,7.2349724626278515,14.958182533438237
22.0,6.794571203776554,17.932848151062153
23.0,7.007360158855045,14.098790790903298
24.0,7.496244988947585,15.533669589000036
25.0,6.787760528982419,16.948745897275714
26.0,7.590407183677453,14.90987555251182
27.0,6.85067172716524,11.444316218427428
28.0,7.5433475093512055,16.07866687926337
29.0,9.169785477728317,15.859553738608867
30.0,10.39667068335028,18.230001925568498
31.0,8.374321629187785,16.384436352990686
32.0,9.636806762666275,14.095601339359227
33.0,7.87309205350118,15.531746656176239
34.0,11.879976396538158,20.325826121164436
35.0,14.4162077104642,16.52895357985838
36.0,9.814319433516914,13.2566089693155
37.0,8.711742722265932,11.63865066876475
38.0,7.985306845003933,9.505212431156568
39.0,7.4993930538383715,10.63177288224495
40.0,7.8976115544565575,12.282054812483608
41.0,8.791931737289723,13.04377318197145
42.0,10.66182327376269,11.262641901764638
43.0,9.972837285976546,11.650724963470832
44.0,10.521748904124985,10.4463302236709
45.0,8.747986212581019,8.280038215128695
46.0,7.3923045221235615,5.8074819227454935
47.0,7.159716758457907,6.048705556179986
48.0,6.276160503540519,5.324903525532951
49.0,6.238848300925405,4.705462515454647
50.0,6.417623918174665,5.863099921321794
51.0,6.524069478908189,5.320845689846476
52.0,7.483041820492646,4.621870523916157
53.0,8.008240029050414,6.223602453146119
54.0,7.1117714700720205,6.064495955133248
55.0,7.112534043454579,6.016118945308559
56.0,7.664621033307107,5.721104492150912
57.0,6.832310516653553,4.7057135363980365
58.0,6.220777145505888,5.168886995267981
59.0,6.684421018146523,5.599092630300432
60.0,6.828348158468188,7.5322652091594335
61.0,7.109361595625387,6.322546751670496
62.0,8.385729184909469,7.540305633899764
63.0,6.329133415758122,5.402881120977108
64.0,7.921497883181598,4.920568731032932
65.0,8.945003933910307,5.999685287175453
66.0,9.514201416207712,6.362391817466561
67.0,7.996616837136114,6.087647521636507
68.0,7.657710464201416,5.686703383162864
69.0,8.721774193548386,5.880645161290323
70.0,7.616004962779156,6.305562448304384
71.0,7.878970223325061,5.341894127377998
72.0,8.063177086485505,4.527005285561541
73.0,6.908604672275009,4.372776836329157
74.0,8.040112627996184,5.259717911252136
75.0,6.776643812521074,5.40895620246525
76.0,7.296976508935596,4.659454497770785
77.0,8.526537034955602,4.61021505376344
78.0,8.235809823536023,5.358510359297141
79.0,6.563219811921622,5.393080064441198
80.0,7.205035405192762,4.993391030684501
81.0,8.108497246262784,8.768843430369788
82.0,7.25251770259638,10.81447678992919
83.0,6.854032258064516,13.735483870967741
84.0,7.250020678246484,13.171898263027295
85.0,7.744768403639371,13.737158808933003
86.0,7.663110008271298,13.870595533498758
87.0,6.655748552522746,11.48045905707196
88.0,7.994081986725575,10.550093808630393
89.0,8.655377280731333,12.104480911168558
90.0,8.525475815818066,13.140360046457605
91.0,9.571397662133304,12.206931175302536
92.0,8.03671649619722,13.770746693642051
93.0,8.287831104117492,12.517552733131017
94.0,7.103592971413585,10.610542879622344
95.0,7.1049042748492,10.149881982690793
96.0,7.8768124086770825,10.166348207260874
97.0,7.614596680529017,12.129257052939192
98.0,6.6498632497845716,13.057862200741823
99.0,6.234225019669552,15.03123524783635
100.0,6.640558615263572,14.582887490165223
101.0,6.54758064516129,13.96532258064516
102.0,6.897580645161289,13.696774193548386
103.0,8.40363886703383,14.894846577498033
104.0,8.404642014162075,12.222423288749017
105.0,9.095062942564908,12.711211644374508
106.0,8.168489378442171,14.928678206136897
107.0,6.975963808025176,13.868961447678991
108.0,9.130539320370161,14.22133771683339
109.0,7.200468322655576,16.21815312277547
110.0,6.427260125135813,14.290734704582068
111.0,6.039121801356263,15.038522348357123
112.0,6.3577985088606646,15.492982653328838
113.0,6.547600314712824,15.982769472856017
114.0,8.801730920535013,11.881235247836349
115.0,10.204405979543669,13.469807238394964
116.0,9.203815892997639,16.55708103855232
117.0,9.258917872057133,14.984020254594604
118.0,9.628200084730375,12.659516028162763
119.0,8.999937965260546,13.799152191894127
120.0,8.896339950372207,12.245140612076096
121.0,7.375186104218361,13.239909015715469
122.0,6.1580645161290315,12.07983870967742
123.0,7.010621557828481,12.529484657749803
124.0,7.571785433292121,12.405122513206699
125.0,7.204037877936383,11.886028998538833
126.0,7.807529691656364,10.54024952231089
127.0,8.378951706567758,12.557693604585815
128.0,8.657629912704657,12.534644636768949
129.0,8.633730470945263,12.298428309167884
130.0,7.629650443969878,12.537353415008806
131.0,9.551384361769884,12.091948596905322
132.0,8.426833014873928,12.728822449514817
133.0,7.783402645086358,12.544790378779364
134.0,8.020574350904798,12.246066089693155
135.0,7.129091266719119,12.498328088119589
136.0,6.565971675845791,14.182061369000786
137.0,6.752163650668765,13.571990558615264
138.0,6.809992132179386,10.514162077104642
139.0,8.067859952793075,12.327891424075531
140.0,7.275673447978718,11.881495635232849
141.0,6.332958675208872,12.610692742872128
142.0,6.126559514443071,14.108351129594245
143.0,8.101345022666816,12.473680266756585
144.0,8.797722078603275,17.213630062567905
145.0,8.578277321943727,17.531392604248623
146.0,8.472773594095388,13.31062155782848
147.0,9.163197332434155,12.031992057247761
148.0,8.285365853658536,13.295200629425649
149.0,7.628363493312353,11.445869394177812
150.0,6.802891424075531,11.670515342250196
151.0,7.094885916601102,13.415814319433515
152.0,7.620220298977183,16.313335955940204
153.0,8.120495672698663,11.297501966955153
154.0,9.598780487804879,16.188099921321793
155.0,8.85484785830604,13.80476826523704
156.0,7.706731560939015,14.176184289974932
157.0,7.308912594002159,15.053080343256545
158.0,9.30400108737986,14.536318748676717
159.0,8.436658293493233,12.701518933740402
160.0,8.46934921883781,11.956929302011915
161.0,9.400348432055749,11.076943539020643
162.0,8.6919130043835,11.045552808062642
163.0,7.9290463077441835,11.947161028061895
164.0,9.40485556929302,10.463676894833464
165.0,11.078584541605785,10.433367052564535
166.0,12.474467048817953,13.295492862762728
167.0,10.81709190363793,15.569068225244463
168.0,9.639309130418493,15.809081712936944
169.0,9.174807987711214,16.158592784084522
170.0,9.635483870967743,16.014319433516917
171.0,8.33780487804878,13.99464988198269
172.0,7.595967741935484,15.125806451612902
173.0,7.016935483870967,16.544354838709676
174.0,7.681244830438379,17.075020678246485
175.0,7.453063406564587,16.252813250216867
176.0,11.187881034517542,18.631481369404263
177.0,10.90160180758135,15.578183081015496
178.0,11.293734851563332,17.63863071101466
179.0,14.974410850099282,13.84477913903563
180.0,12.469034506013262,14.648795474129855
181.0,12.756528417818739,11.254224270353301
182.0,12.251395601513618,15.72059870368289
183.0,11.050766175864524,13.044659248435803
184.0,10.261942227717206,16.420947135738636
185.0,8.28012035171752,15.491431856892124
186.0,7.856462708547681,17.595150194678126
187.0,7.6169884403558665,14.563456999334262
188.0,7.677101615929311,13.429250136173819
189.0,9.823228227319493,16.696883132603038
190.0,11.052125320260647,11.864499989913051
191.0,13.467840787589017,9.904161875365652
192.0,11.283084185680567,11.597403619197483
193.0,9.386624704956727,11.217194934622157
194.0,8.1271833202203,13.622307144730431
195.0,7.395351429320744,12.973492937694353
196.0,6.391371623393653,14.333992731632385
197.0,7.682310516653553,13.776359072346484
198.0,7.8615085609381445,12.918517477801505
199.0,6.662451762766476,10.856524671237494
200.0,5.605035405192761,11.437862950058072
201.0,9.269079464988199,13.677232025776478
202.0,9.270109774830468,16.41956090067813
203.0,12.492735378966692,16.170686748342135
204.0,13.949750852347233,17.658120714847698
205.0,11.772129182121315,16.88060394889663
206.0,9.810140122138549,15.951552957925893
207.0,9.586122879218866,17.740842058544658
208.0,10.659593697673948,13.712356513143295
209.0,7.795965220198108,14.784738445399343
210.0,7.577998345740281,14.437923904052937
211.0,8.02125723738627,13.337510339123241
212.0,7.653225806451612,10.728225806451611
213.0,8.538709677419355,13.991935483870966
214.0,10.133064516129032,14.570967741935483
215.0,10.894546850998463,14.565706605222733
216.0,10.207914652879246,12.585243153122775
217.0,8.824905398823574,12.777485856655801
218.0,7.601776816155258,11.570367352291035
219.0,7.707167209920947,13.872222846652429
220.0,7.022554419092578,13.423438612266306
221.0,6.694204038814582,14.609044247124498
222.0,8.489116181484395,14.52482110074557
223.0,9.150331572440148,14.50653778427185
224.0,9.092446892210857,14.06764452437151
225.0,7.331707317073171,14.256018882769473
226.0,6.6338016559889095,14.027919523434864
227.0,6.455689183619947,10.265730021355514
228.0,7.515020044209658,11.308710801393728
229.0,7.338548574425836,10.783387658761379
230.0,8.95424674984077,13.63150500168596
231.0,8.65761492637968,12.871820089168633
232.0,6.869169382938069,10.745607133490688
233.0,9.99310629050991,10.813120527518638
234.0,8.345547188190775,10.843055711663107
235.0,8.00794275223858,12.432936195721403
236.0,8.269716383799782,13.258326776816155
237.0,6.780356674534487,9.686167622044884
238.0,6.755078490877074,9.182945562174515
239.0,8.998276572627477,9.822809186617212
240.0,7.586943164362518,11.535637480798771
241.0,9.522237832977407,15.285137312202615
242.0,9.83715578284815,15.73784421715185
243.0,9.036624704956726,12.322600314712826
244.0,6.829602675059009,14.18589693154996
245.0,9.948544453186468,17.33988985051141
246.0,11.795560301225132,16.21799482971788
247.0,11.590148364617287,15.94731370124761
248.0,10.258900940391893,15.19105222734255
249.0,9.573901315050017,13.397849462365592
250.0,8.532426660672137,13.786650931025438
251.0,8.465887377767785,14.389869244314562
252.0,8.854932374208534,10.948128582668314
253.0,8.437450826121164,11.720224045558428
254.0,8.580630174965343,11.41272338990671
255.0,7.051819253392817,11.152073732718895
256.0,6.381377762022923,10.417972350230414
257.0,6.214728819567529,13.212826420890938
258.0,8.332402812241522,13.397580645161291
259.0,7.852383546167968,13.178678206136901
260.0,8.304956726986624,12.290755310778914
261.0,7.954475291296691,17.255323891948596
262.0,7.062937881682965,15.209192237083661
263.0,6.927878311041175,13.260087670001123
264.0,6.060170094788505,11.706118167172455
265.0,7.359353340077179,12.15242965793713
266.0,6.848263459593121,10.846644936495448
267.0,6.163313476452737,12.203259525682814
268.0,13.431343898692443,11.960552246075455
269.0,11.766286388670338,15.195790715971675
270.0,8.620908733280881,12.479169944925257
271.0,7.510857592446891,14.389181746656178
272.0,7.506215578284816,14.151494885916602
273.0,8.52604623281256,9.590452774343412
274.0,8.785466074706829,11.060696489453374
275.0,7.752066239556404,14.900981604286088
276.0,7.599715259825409,13.812371211269717
277.0,7.015829305758496,14.788955078490877
278.0,8.264673485444533,14.432572777340678
279.0,7.482769472856019,15.514555468135327
280.0,10.23740039137364,14.301498920696403
281.0,8.586206096552282,11.679309649175895
282.0,8.756596360628617,14.592762613730356
283.0,9.78595947063689,14.60928453267163
284.0,9.023336878175588,11.106504785537044
285.0,8.358800719343598,13.421264658499119
286.0,8.649522310891314,10.691680716346333
287.0,8.034104192424413,14.052587014349406
288.0,7.86426702494439,10.199661849260224
289.0,7.349605694106453,10.687903683237883
290.0,9.409882087246551,8.692009239243609
291.0,9.571974875251914,12.676453085396783
292.0,8.127450852260102,11.39487485111696
293.0,10.723277509272787,13.219549660934398
294.0,9.121670225918848,13.607826608219998
295.0,8.607395751376869,13.791315424674984
296.0,6.954366640440598,13.328387846090443
297.0,7.523210070810386,15.14570454460305
298.0,8.350767569941265,11.583519573273108
299.0,10.272542003096593,10.48300402626789
300.0,9.737372496434212,14.964554727532057
301.0,7.1809600483744624,12.705251399958005
302.0,11.399217051649671,13.062396783864955
303.0,11.30072309018021,13.181825334382376
304.0,9.257776029373197,13.14698025551684
305.0,9.900327825858902,11.571466973886329
306.0,7.907421977445581,11.912749615975422
307.0,6.605784721441684,8.908755760368663
308.0,6.031115357236521,7.515409688659098
309.0,8.334991195534075,6.984691469034506
310.0,7.170446030497171,10.980263010003373
311.0,5.954981079764715,11.228841182421041
312.0,6.4137424600052455,11.573713985987787
313.0,5.635199130793151,14.765988535461391
314.0,6.071730171218762,13.683151624142969
315.0,8.614149900715597,13.466910194447568
316.0,9.352639466486831,14.793132516578622
317.0,10.998834813232925,14.093158742647333
318.0,8.336821400472068,12.07891424075531
319.0,9.945279307631786,12.161801730920534
320.0,9.440381589299763,10.743804091266718
321.0,9.437529504327301,12.378756884343037
322.0,9.085483870967742,11.858064516129032
323.0,8.606451612903225,11.504838709677419
324.0,7.564516129032258,9.193548387096774
325.0,6.796813532651456,8.699272226593234
326.0,6.058890637293469,10.367781274586939
327.0,7.040912667191188,14.441404405979544
328.0,7.175563860477315,12.55893184968716
329.0,8.874897905661085,9.422284665242966
330.0,9.794929002285414,7.662661571316175
331.0,8.373309355213369,6.241392229590499
332.0,8.034805739762465,5.129350717470309
333.0,6.492671687085535,4.753538645985538
334.0,6.892068487505152,4.452815555805328
335.0,6.901333782923083,5.33001760893185
336.0,8.410267505900865,9.370692368214005
337.0,11.074370574350905,7.168194335169158
338.0,11.378717545239969,9.600629425649096
339.0,11.587470495672697,10.76215578284815
340.0,10.2374704956727,11.927812745869396
341.0,9.894964594807238,12.47407553107789
342.0,9.348918174665616,16.01400472069237
343.0,9.805507474429584,15.094099134539732
344.0,12.468937094900902,15.444636768948335
345.0,9.606653928290434,14.801858304297328
346.0,12.03467835600015,11.197002735004308
347.0,11.071121351766513,11.680645161290322
348.0,9.876119291146829,10.72383949645948
349.0,8.056873103293245,14.613558877524259
350.0,7.457776029373197,13.051403094676107
351.0,7.007766662920085,12.568251470533138
352.0,6.618860289985388,11.748949083960884
353.0,6.477115593559338,13.086139090387714
354.0,7.417393359328844,13.239607704123834
355.0,7.585194375516956,15.82671629445823
356.0,7.863564929693962,18.198035566583954
357.0,9.132588916459884,17.631679073614556
358.0,10.411290322580644,15.333870967741936
359.0,10.878225806451614,15.42258064516129
360.0,8.514516129032259,13.585483870967742
361.0,9.856968569065344,13.241170388751033
362.0,13.574717565413868,12.453836571244125
363.0,10.042331900986504,12.651975889308698
364.0,11.059069176299705,17.367116976912413
365.0,11.409078254554258,16.748881069101365
366.0,12.071492263309729,20.32319883106665
367.0,10.086025251957588,17.78647296841632
368.0,8.60983290247649,15.063743396650555
369.0,8.743134389869244,12.088569180622681
370.0,8.05567419729497,13.331534974335918
371.0,7.915439661309056,11.410175714660372
372.0,9.954647634033945,12.268835937207298
373.0,8.82788205762242,11.763590723464837
374.0,8.742291409089205,9.968004196170993
375.0,7.759855381963957,8.94175939455247
376.0,7.291218013562624,10.356824397737064
377.0,7.00544003596718,10.126952905473754
378.0,6.840642913341576,12.862453636057097
379.0,7.132621482896857,13.184654939867372
380.0,7.296129781574313,12.314937619422277
381.0,7.08892510584092,10.527668502491476
382.0,7.365891124349031,11.40669139410288
383.0,8.194747293095052,10.275336255666705
384.0,8.769622719268668,9.862575399947549
385.0,8.456801918249596,12.389588250721216
386.0,8.0252519575887,14.961691206773818
387.0,8.743808774493274,10.356037615675696
388.0,8.080493119795628,10.524724386671581
389.0,8.095040310600297,9.677614525582616
390.0,10.22336594601612,12.618901676638671
391.0,8.008917996049535,14.22458140667571
392.0,9.593131209631675,15.60165041260315
393.0,9.050968491251734,15.28494623655914
394.0,11.865059383312726,13.241607658012065
395.0,11.274386497321194,16.629851822711775
396.0,9.822932823798284,15.196564384998688
397.0,8.719176876100558,10.349344348282193
398.0,8.42932730133753,11.812844217151849
399.0,6.624783634933124,13.733280881195908
400.0,7.331274586939417,9.844217151848937
401.0,8.378461841070024,11.446498819826907
402.0,7.639771833202203,12.41410306845004
403.0,11.120692368214005,13.28245476003147
404.0,13.969285526956652,13.862612865759994
405.0,10.25254205537447,14.507230901802107
406.0,14.806444119740735,10.781546214079652
407.0,22.465692555543065,8.520670825371848
408.0,20.15243715109962,12.907414484283091
409.0,14.07506650181709,12.610389269791316
410.0,13.537769285526956,13.74264546101682
411.0,11.345989284777641,12.343785358360496
412.0,10.662215728148066,18.076898580045707
413.0,8.438660971863175,14.915947323067702
414.0,9.828009441384737,10.096990558615264
415.0,9.972069236821401,13.415027537372149
416.0,9.094771934071698,14.274783634933124
417.0,8.673428453267164,14.000806451612902
418.0,7.843569065343258,10.446774193548388
419.0,7.41976840363937,12.141129032258064
420.0,7.3518196856906535,9.891935483870967
421.0,8.910483870967742,11.994354838709675
422.0,8.320967741935483,11.951612903225806
423.0,11.712096774193547,13.552419354838708
424.0,9.076116625310174,13.002253928866832
425.0,10.225558312655087,11.018465674110836
426.0,9.022456575682382,9.952377998345739
427.0,8.876550868486351,7.492721257237385
428.0,6.340694789081885,5.673779983457402
429.0,5.775806451612903,4.919354838709678
430.0,6.732258064516128,4.624193548387097
431.0,12.270967741935483,4.6177419354838705
432.0,12.616719118804092,4.779661683713611
433.0,10.28443482821925,4.939600427110262
434.0,9.173983739837398,6.263102731257727
435.0,8.074088644112248,7.053229553032858
436.0,10.452174890412499,7.357835974673111
437.0,9.406260537259751,15.728091866172118
438.0,9.664343786295007,13.557978344760405
439.0,10.86021505376344,14.596774193548388
440.0,23.099078341013822,10.491551459293394
441.0,17.349462365591396,8.023809523809522
442.0,12.366591647911978,8.049976779909262
443.0,11.652573857750152,12.200871646483048
444.0,12.305802495920148,17.194606142824902
445.0,11.028861309404007,15.70713410059832
446.0,9.259054310615982,15.295963363663214
447.0,11.57202802442771,15.66730358547825
448.0,10.1923494810985,12.079202727511145
449.0,10.242516203963884,11.014188303173354
450.0,9.357498782361096,10.946502566408153
451.0,8.659716758457908,12.199291896144768
452.0,7.257553107789143,8.851180173092054
453.0,7.111388670338316,7.897659323367426
454.0,8.265774980330448,9.743587726199843
455.0,9.861447678992919,10.510660896931551
456.0,10.028284815106215,9.437785208497246
457.0,9.728658536585366,10.379779701022816
458.0,10.46814440476911,16.392123101131755
459.0,8.191330266900684,15.712997034436846
460.0,8.519740664528232,15.026443442474127
461.0,7.141725170973794,14.820883011559644
462.0,8.659169037099801,14.17253827997337
463.0,7.996085759244689,14.164929189614476
464.0,9.784736428009442,12.55786782061369
465.0,9.496774193548386,12.384677419354839
466.0,9.414516129032258,14.733870967741936
467.0,8.42081038552321,15.861250983477575
468.0,8.458457907159715,15.050059008654603
469.0,9.022316511183543,14.719672361470158
470.0,10.770324266606721,14.866022254692592
471.0,8.622681802854895,14.057322693042599
472.0,7.5708216252669445,15.620950882319883
473.0,7.34992694166573,14.844307069798809
474.0,6.822659323367427,14.275609756097559
475.0,10.44948859166011,15.557946498819826
476.0,10.25503540519276,16.413119590873325
477.0,12.75121951219512,17.710818253343824
478.0,13.588985051140833,14.951003147128246
479.0,12.651328163051215,15.757970851597916
480.0,11.160046457607432,18.01903263272264
481.0,9.976561387733692,16.877730321082012
482.0,14.590955752875502,13.432964295080739
483.0,15.02238582293657,16.828893634558465
484.0,14.52616986999363,16.972050503915177
485.0,17.452099958787606,14.882657075418681
486.0,17.722902851148326,15.960998089243564
487.0,19.539994754786257,17.375557303960136
488.0,15.764077779026636,18.565284178187405
489.0,15.546401408714548,13.787250384024578
490.0,12.193323592222097,12.938556067588326
491.0,9.272900977857704,14.956689520812258
492.0,9.660874452062494,11.16667041324791
493.0,14.844636768948334,8.827143981117231
494.0,19.08545202502716,12.302896107302086
495.0,13.071911880409127,8.781785995279307
496.0,10.376160503540518,12.813867033831627
497.0,10.257159716758457,10.87714398111723
498.0,10.061152635719905,8.449822974036191
499.0,10.374527930763179,10.954346970889063
500.0,7.614280094413847,9.272738001573565
501.0,9.4514948859166,6.932336742722266
502.0,9.829259718775848,13.089330024813895
503.0,8.156968569065343,15.440632754342431
504.0,7.590177832919768,13.824751861042184
505.0,7.405976013234078,17.37165012406948
506.0,9.277584780810587,15.831389578163773
507.0,12.474193548387097,12.178225806451612
508.0,12.801612903225806,12.246774193548386
509.0,14.115538945712036,14.32234461054288
510.0,11.974704956726985,12.559559402045632
511.0,11.394610542879622,13.718489378442172
512.0,9.176337529504327,14.27779307631786
513.0,8.405507474429582,13.840912667191187
514.0,9.467741935483872,13.406451612903226
515.0,10.165912667191188,12.893981117230528
516.0,9.385778914240756,15.265538945712038
517.0,9.466679779701021,13.383575924468921
518.0,9.932474429583005,12.25418961447679
519.0,13.240952006294256,14.577104642014161
520.0,10.04581038552321,14.43143194335169
521.0,9.196349893222434,11.614679105316398
522.0,9.921355513094301,12.58169045745757
523.0,7.6015117455322025,12.66889400921659
524.0,6.707297403619197,13.191290135251585
525.0,6.967348544453186,13.85637480798771
526.0,7.6376681278333525,10.55453149001536
527.0,7.887340301974448,11.855419429770333
528.0,7.2599378067513385,12.457007980218052
529.0,6.615076242928327,11.129294518751639
530.0,7.752234661452819,12.424353039479382
531.0,8.288943751617346,10.604265613441687
532.0,9.566514886561361,12.290996093971227
533.0,8.46182887185211,11.882825235925704
534.0,7.785202398160515,10.439052271778746
535.0,6.8216627327563595,12.387302836162
536.0,6.205762241954217,11.44749166385673
537.0,9.14742797197557,10.610842606121913
538.0,8.37046195346746,13.251732793825632
539.0,8.531977070922782,13.52178636993743
540.0,9.834831965831178,11.640908920609942
541.0,8.56142519950545,11.30470945262448
542.0,9.55736390543629,10.524858566558017
543.0,9.141744408227492,8.486025251957589
544.0,9.492053501180173,8.038702184256866
545.0,9.74287962234461,6.792757858454161
546.0,9.473590348806713,10.961663107414484
547.0,9.407609306507812,10.312820801019068
548.0,8.963021243115657,10.798883518789104
549.0,9.767299838897006,11.037390880821249
550.0,9.231950844854069,8.572964669738862
551.0,7.665992282042636,11.836836386797046
552.0,8.662335618747893,10.407665505226479
553.0,9.443096924056798,10.323873215690682
554.0,9.110565359109813,12.416544902776216
555.0,7.142456258663969,10.718257090405004
556.0,8.16562324379004,9.63789292270803
557.0,8.572327750927279,10.162376831141582
558.0,9.086789554531489,11.30573976246675
559.0,10.066338013074695,14.410782573692202
560.0,10.182938591790805,13.451551041070372
561.0,9.721966205837173,16.10283407088706
562.0,10.970814132104454,14.02429178723252
563.0,9.053763440860216,10.97835173078984
564.0,8.761511806523059,8.575358125245597
565.0,8.505947915550315,8.46279426999607
566.0,7.225637855456896,9.913491439061856
567.0,7.521805102843656,10.04891161814844
568.0,9.776647559102319,13.127758420441346
569.0,10.56305496234686,15.908733280881195
570.0,8.798171668352628,12.790116518676708
571.0,10.212431156569629,12.635232850024352
572.0,10.271274700208153,12.646109262507263
573.0,9.614347402181554,12.674727479779353
574.0,9.824585937425123,11.341812805117655
575.0,9.0153614187519,10.487979573290534
576.0,11.65937041751727,13.190610370362624
577.0,10.04507137237271,13.88254467798134
578.0,9.189951669101944,13.714772769847514
579.0,12.338091491513993,14.257465063129892
580.0,11.026507062305646,11.409594994567456
581.0,8.367861826083699,11.914705331385111
582.0,8.641838072758606,11.488823948147314
583.0,9.359705518714172,10.626132404181185
584.0,7.94499831403844,11.156889962908846
585.0,9.103760630924281,13.710465138061519
586.0,8.816799670300849,14.395151923869468
587.0,8.091720055449404,12.971769510321831
588.0,9.108418568056647,13.02360346184107
589.0,8.43830879322618,9.946985875388709
590.0,7.744252744370761,13.398905998276572
591.0,11.379461241617024,13.35152673185718
592.0,10.215301037803005,10.732018283316474
593.0,8.753917050691244,10.60065752500843
594.0,9.30284178187404,11.282279607358287
595.0,9.357498782361095,11.764733430744446
596.0,7.598104229890225,11.135438911992807
597.0,9.57708590910794,10.534993068824697
598.0,55.164118991420324,9.349293769435391
599.0,50.222022404555844,8.852384698962197
600.0,38.1216327601064,7.605765988535461
601.0,28.6485436690183,7.088856273301776
602.0,34.34193696507751,14.285211546789137
603.0,21.34416356702416,11.56887305450056
604.0,21.707730504054584,10.071892973243312
605.0,27.31507876969242,9.440324366805985
606.0,21.02475618904726,8.525113421212446
607.0,16.08717858907235,6.880227461046446
608.0,13.373243136568114,8.278885923571485
609.0,10.25190574647146,7.442054328913239
610.0,9.382322061351573,9.823992583511732
611.0,10.202628183178199,8.57466195817247
612.0,10.937270031793663,9.733829798913142
613.0,8.431006706380428,8.475216365066876
614.0,7.201978194897157,11.154471544715447
615.0,9.092053501180173,16.097935633734217
616.0,9.540182083848487,14.451537971600914
617.0,7.980555243340451,15.826870480686374
618.0,8.14424337791765,13.92791577685362
619.0,6.832546551271964,10.722415795586528
620.0,6.803754074407103,11.9203476827395
621.0,6.478903001011577,12.904784384249373
622.0,7.5326214828968565,13.907845341126222
623.0,8.966771570941516,13.324506387921021
624.0,8.749711513244165,12.958083249035255
625.0,8.606525607882807,13.262817054437825
626.0,9.711730545876888,12.059634333670527
627.0,8.88518227117755,9.917297965606384
628.0,8.85814319433517,13.087175452399684
629.0,8.573052714398113,11.40354051927616
630.0,9.903756884343036,11.852832415420927
631.0,8.002360346184107,11.326514555468135
632.0,9.699449252557041,10.733280881195908
633.0,9.074744295830055,8.127458693941778
634.0,7.874586939417782,8.537844217151848
635.0,8.4953136032601,9.217922491880005
636.0,7.721142246161915,10.241140632249994
637.0,8.37394641812423,11.730719804716657
638.0,6.5665955536726575,11.512881538865017
639.0,5.755475196191167,14.045986402792067
640.0,6.794197482297403,14.487922895357986
641.0,7.040243902439024,13.39799370574351
642.0,6.625,15.17122344610543
643.0,7.389371381306865,13.573256470778107
644.0,8.42694375516956,15.800475599669149
645.0,8.95097187758478,16.836124896608766
646.0,8.977502067824648,16.555562448304382
647.0,9.212944582299421,16.05802315963606
648.0,8.025,14.042741935483871
649.0,11.268548387096775,12.950806451612902
650.0,14.462903225806452,13.853225806451613
651.0,12.036641852770884,14.28895781637717
652.0,12.009449958643508,14.931575682382132
653.0,11.984160463192723,13.155707196029777
654.0,11.56708023159636,15.144789081885856
655.0,11.309346567411083,13.061910669975186
656.0,10.13225806451613,14.13790322580645
657.0,10.325019669551533,13.77918961447679
658.0,12.017348544453187,14.202498033044847
659.0,10.80786782061369,11.937136113296617
660.0,11.340499606608969,13.254523996852871
661.0,9.67910156981754,11.801455546813532
662.0,8.55906298003072,11.461309992132179
663.0,6.48026113671275,10.448761754898655
664.0,9.22767974223521,10.930950507661759
665.0,7.998688696564384,10.504083773556628
666.0,7.507024839833652,10.686373684013336
667.0,8.705125323142632,14.314469296766699
668.0,9.831441309804804,16.32966168371361
669.0,19.115343731403236,14.63117303716173
670.0,18.131994671141655,16.44116255544722
671.0,14.02759487781353,18.454068220887976
672.0,17.63252659854859,17.567766941735435
673.0,16.951102758267965,13.905469398708561
674.0,14.873965006931176,14.751227005357611
675.0,11.478906747592822,12.308025177025963
676.0,16.04190551122101,330.7004982953055
677.0,13.529324491401596,612.0871155070997
678.0,13.072766100932899,466.687302836162
679.0,13.900663144880296,275.5922745494736
680.0,12.389732494099135,171.06518489378442
681.0,9.85851691581432,100.35595987411486
682.0,8.578855232100707,45.80902832415421
683.0,7.3616050354051925,21.879110936270653
684.0,9.753658536585366,12.579209284028323
685.0,12.142446892210858,7.68701809598741
686.0,12.036841070023604,5.41140833988985
687.0,10.417938630999213,6.068961447678992
688.0,12.949193548387097,6.56014948859166
689.0,13.540991345397323,7.001652242328875
690.0,13.109205350118017,6.395397324940991
691.0,10.906215578284815,8.06624704956727
692.0,12.160031471282455,9.935955940204563
693.0,11.235405192761604,9.889299763965381
694.0,10.338001573564123,11.937962234461054
695.0,11.304664493649545,8.59196264658499
696.0,11.074519500955379,10.372859765464014
697.0,12.750477689108688,11.38076505189015
698.0,12.802854894908396,8.138848300925405
699.0,10.302124311565695,5.7642089093702
700.0,10.076430257390133,5.440822749241317
701.0,7.599820164100259,4.6676182983027985
702.0,7.800067438462403,4.882746993368551
703.0,6.22292907721704,5.082522198493875
704.0,7.552478363493312,5.681353265145555
705.0,6.347836349331235,5.049173878835563
706.0,7.217466561762391,4.74152242328875
707.0,7.644217151848937,5.213906372934697
708.0,6.978324154209284,7.695751376868606
709.0,8.281117230527144,11.162509834775765
710.0,10.197128245476001,9.8838512981904
711.0,10.332238394964595,14.576298190401257
712.0,17.035877261998426,14.628874901652242
713.0,15.887804878048781,14.443076317859951
714.0,12.97616050354052,11.634992132179386
715.0,12.012273800157356,17.46144767899292
716.0,8.961132966168371,14.375806451612902
717.0,10.312348947931167,14.922559966914804
718.0,9.671093828804292,15.452812241521919
719.0,8.90572787427626,15.013502894954508
720.0,8.403267162944582,14.32570306038048
721.0,8.116956162117452,13.002770885028951
722.0,7.025806451612903,11.45241935483871
723.0,7.519354838709678,10.682258064516128
724.0,8.72253928866832,11.805314309346567
725.0,6.7247629566866385,12.274441182997439
726.0,6.875058504307127,9.473697774818937
727.0,10.602310920131533,10.541304040831971
728.0,7.825694630572679,11.215275676329965
729.0,6.749690907047319,10.874377130868083
730.0,6.859503203326964,9.637031209021767
731.0,6.867520887190439,9.378104979206473
732.0,6.7459443258027045,7.439605110336817
733.0,6.841482147540369,10.508973062080852
734.0,7.493012625978794,14.34910644037316
735.0,7.051459293394776,13.906298003072196
736.0,10.603686635944701,13.738095238095237
737.0,11.900921658986174,14.654377880184331
738.0,12.105044118172401,14.899010466902439
739.0,14.26442324866931,11.697084985532097
740.0,11.940967384703317,10.156146179401993
741.0,10.516875734613095,10.576668121734265
742.0,8.553636667006472,8.883134546702879
743.0,8.787624606500057,9.691218971990384
744.0,10.146625506550853,9.517027340458807
745.0,10.67085499597896,9.925948386051218
746.0,11.846854570785553,9.638445325617118
747.0,9.1564498267424,10.905029828885793
748.0,13.819776372664593,13.317722287714785
749.0,14.328725038402457,10.993855606758832
750.0,12.170506912442395,12.089861751152073
751.0,10.257914652879247,13.13163613202952
752.0,7.731032932449141,13.194859690532388
753.0,6.91467161215391,12.84704582068862
754.0,6.782173766438125,12.90491176801169
755.0,7.0685249709639955,12.384436701509872
756.0,7.476040612940691,11.945562174515754
757.0,11.616574875426174,15.713480199318122
758.0,10.701472406429133,13.255479375070248
759.0,10.06080701360009,13.898392716646061
760.0,8.46187853583605,13.577498033044847
761.0,9.94455059757971,14.43194335169158
762.0,8.29946423888202,12.250533887827356
763.0,7.709684912517329,10.827627290097785
764.0,7.613851110861338,11.593042598628752
765.0,7.179813420254018,11.325323142632348
766.0,8.732314263234798,10.843621445431044
767.0,8.164083398898505,12.738630999213218
768.0,8.749547600314713,13.883300550747443
769.0,12.561014948859166,12.506785995279307
770.0,12.314830841856805,14.168371361132966
771.0,10.46843036978757,13.043666404405979
772.0,8.787883556254917,12.61998426435877
773.0,11.37993705743509,12.418804091266718
774.0,10.772265932336742,12.60987411487018
775.0,11.060405192761603,12.308477576711251
776.0,10.80963808025177,12.537207298340263
777.0,12.100334382376081,10.741066277022217
778.0,8.861014948859166,12.989612603499307
779.0,8.027537372147915,11.752575774605674
780.0,9.847757671125098,11.67290472443895
781.0,8.135169158143194,13.48906372934697
782.0,10.435405192761603,13.605035405192762
783.0,9.871282454760031,13.848544453186467
784.0,9.527694728560189,13.23095987411487
785.0,9.84032258064516,13.808870967741935
786.0,9.201612903225806,13.32983870967742
787.0,10.369354838709675,13.504032258064516
788.0,8.397746071133167,14.411703887510338
789.0,14.309760132340777,15.829239040529362
790.0,20.57336944461256,13.512455869595916
791.0,22.171617845831065,16.190561137000948
792.0,20.16486038220893,15.604362749760075
793.0,21.62175920722341,16.027765913603837
794.0,16.96650556367315,13.108276197969353
795.0,12.34757034206287,16.20302723764565
796.0,11.143718856543405,12.469914952605746
797.0,19.488142070360794,14.92735378966693
798.0,18.375576036866356,13.724270353302611
799.0,16.06015136188228,12.170319583380165
800.0,16.018938968191524,12.86856992993893
801.0,14.526919186242552,13.312745869394178
802.0,14.613075568543703,10.532025776478964
803.0,14.755078490877075,10.260252519575888
804.0,12.898388970064815,8.76545277434341
805.0,10.362152036266906,7.446746094189052
806.0,13.552830542130305,6.936118916488704
807.0,30.53916114045933,7.983382038889513
808.0,27.46428103105916,9.002827732194373
809.0,20.778511483271515,8.410786407403243
810.0,18.441576748716795,7.2372578771870675
811.0,14.23981866546776,7.275336255666705
812.0,10.637218538083996,6.161271589674422
813.0,8.653478700685625,6.187778651980068
814.0,11.275126447117005,6.335746131654865
815.0,10.37949870742947,6.028219249934434
816.0,8.738136450488929,5.8547862575399945
817.0,27.73186842006669,7.206513431493762
818.0,29.05340071951786,9.022486523198744
819.0,19.893904660834195,6.507383814594763
820.0,17.400678566854253,6.053968195881723
821.0,15.077912335226664,7.579698496052584
822.0,11.764575290164004,9.280585825898983
823.0,9.680540779794253,9.481574661958172
824.0,18.991266980508193,12.24081543033842
825.0,12.921081315625074,12.487917275486119
826.0,11.457614926379678,11.49234573451725
827.0,11.793166235809824,11.983230302349106
828.0,11.281552986745748,11.221202767858944
829.0,10.818903952066815,10.096754019649378
830.0,10.572394540942929,8.072373862696443
831.0,8.336600496277915,10.474090157154674
832.0,9.40620347394541,8.107609594706368
833.0,11.240322580645161,8.02741935483871
834.0,9.081835637480799,9.568125960061444
835.0,8.478562566465792,9.698971995746188
836.0,7.575542101486239,8.016755864120144
837.0,12.779303308807634,7.822087609479427
838.0,9.596256877138073,6.6448955712527695
839.0,9.51844614865858,6.782340633402789
840.0,8.785227230152486,7.539700648158556
841.0,8.81708253718482,6.29542074107377
842.0,12.090779663557004,7.343392903975122
843.0,11.910981229627964,7.79727248885392
844.0,10.43730096287138,9.278033794162825
845.0,11.59709265295418,12.573713985987785
846.0,17.331272713648794,13.074069911206024
847.0,16.035667453448728,14.107170956502191
848.0,15.659154771271215,13.692986399910081
849.0,12.981267093776928,10.644112247574089
850.0,10.842089093701997,7.573118279569892
851.0,10.745929339477726,10.072657450076804
852.0,9.595698924731181,12.217972350230415
853.0,8.308064516129033,11.61351766513057
854.0,6.820933086058972,8.867612678430932
855.0,7.311138586040238,13.092907721703945
856.0,9.42615301037803,10.407820988348131
857.0,10.066763141133716,13.242312951931362
858.0,7.948300925405567,12.687688734030196
859.0,10.435560675883256,13.863364055299538
860.0,9.65057603686636,12.274615975422428
861.0,11.017281105990783,12.793701996927805
862.0,11.628840245775729,9.480952380952381
863.0,11.79032258064516,11.771121351766514
864.0,10.263619476297645,14.517682992176615
865.0,7.721043936942424,11.010958314491514
866.0,10.61666636171238,15.075371630364037
867.0,15.888978342146512,19.119867074782633
868.0,14.967998968383212,15.993450453205636
869.0,22.260818688992806,14.045112323377012
870.0,23.772030115542822,12.07369699567749
871.0,20.27920002648746,11.874359269259823
872.0,15.45565224058628,11.44601219991409
873.0,11.190847363408796,11.99798643040551
874.0,10.253606084447942,11.822824172942187
875.0,8.644112247574089,12.4468172792327
876.0,9.352740624180434,11.444494398861039
877.0,9.698774867933011,9.743246787306582
878.0,10.190345060132628,9.068412573526656
879.0,10.826458356749464,7.556105054138099
880.0,9.432505338878272,10.70645535948447
881.0,10.56794425087108,11.239144280843732
882.0,7.62661571316174,13.217526507062306
883.0,7.343823760818253,11.418568056648308
884.0,9.861998426435877,9.157356412273801
885.0,12.291738788355625,11.040125885129818
886.0,11.454602675059007,10.4147128245476
887.0,9.378048780487804,11.494846577498034
888.0,7.799173878835562,8.521852871754524
889.0,7.648780487804878,6.885523210070811
890.0,10.148937844217151,9.641424075531077
891.0,7.823229740361919,10.779858379228955
892.0,7.949921321793863,13.74073564122738
893.0,8.158025177025964,9.372383949645949
894.0,7.091109362706531,7.86522423288749
895.0,7.318568056648308,10.945594020456333
896.0,9.061104866809035,10.664097448578172
897.0,9.121406091941104,10.389651005957063
898.0,9.21046701135214,10.061062717770035
899.0,9.16531415083736,9.431741036304372
900.0,9.229391929864,10.43223558502866
901.0,8.314004720692369,9.202753737214792
902.0,8.667545239968529,8.447875688434305
903.0,7.608359559402046,9.243214004720691
904.0,8.200550747442959,9.616365066876474
905.0,9.65377655389457,12.314083398898504
906.0,10.370751376868608,11.893450039339104
907.0,8.61494885916601,11.813453973249409
908.0,7.851140833988985,10.641974822974037
909.0,6.71675845790716,8.471282454760031
910.0,7.007081038552322,8.237608182533439
911.0,7.757671125098348,9.147128245476004
912.0,8.336742722265932,7.3446105428796225
913.0,15.286238807088532,10.732793825634108
914.0,12.951931362631598,9.681503128395338
915.0,10.657450076804917,9.341051290697237
916.0,7.871604660747069,11.292870255891499
917.0,6.951219512195122,10.076261661234124
918.0,7.204488404331047,7.786594732306771
919.0,9.516428758757634,10.194541231126596
920.0,8.408752013787419,10.003184594057922
921.0,8.60209433891574,7.78562062118317
922.0,9.763643175602262,9.454715072496347
923.0,9.399486718369488,10.060072683676145
924.0,8.096747967479676,13.525581656738225
925.0,7.710739575137687,10.295279307631787
926.0,8.25977576711251,11.436388670338317
927.0,7.994807238394965,11.617387883556255
928.0,7.942564909520063,12.684303697875688
929.0,8.504346970889063,10.72844217151849
930.0,11.217899291896144,11.055350118017309
931.0,8.486290322580645,11.39274193548387
932.0,6.723387096774193,13.570967741935483
933.0,6.691935483870967,12.900806451612905
934.0,6.349193548387096,11.44032258064516
935.0,7.340322580645161,8.790322580645162
936.0,7.975806451612904,9.47016129032258
937.0,8.1,10.728225806451611
938.0,11.776509511993382,11.994913151364763
939.0,10.305996691480562,11.84987593052109
940.0,7.686869313482217,12.829776674937964
941.0,7.718837882547559,12.61166253101737
942.0,8.115467328370553,14.097766749379652
943.0,12.536742722265931,13.280802517702597
944.0,12.411113296616836,14.465401258851298
945.0,11.230442917952752,15.033600133147733
946.0,11.016175432225786,14.4682851177147
947.0,9.77697048558575,15.519557586394722
948.0,11.661026548851098,11.90674968226109
949.0,12.356108512520786,8.39421585495543
950.0,15.28293432243078,12.281971451050914
951.0,14.101026563261023,11.840120265257951
952.0,12.393625192012289,9.35226574500768
953.0,11.690937019969278,7.9073732718894005
954.0,17.764439324116744,8.772811059907834
955.0,22.06121351766513,8.033755760368663
956.0,21.502304147465438,8.427803379416282
957.0,19.956221198156683,8.509984639016897
958.0,21.178955453149,9.925499231950845
959.0,19.96888507841246,11.939306255135211
960.0,18.09196942092666,12.299146215125209
961.0,27.317490086807418,9.520540849498088
962.0,23.53227592612439,9.687671917979493
963.0,16.05569249455221,8.2393812738899
964.0,14.162219126210125,7.313167577608688
965.0,12.98356732040153,6.318258135962561
966.0,18.752152323795237,5.580788054156397
967.0,37.497081413210445,9.393394777265744
968.0,27.463594470046083,8.099539170506912
969.0,22.870046082949308,6.585099846390168
970.0,17.521812596006143,6.226113671274961
971.0,13.080292982653328,7.716874601925742
972.0,8.515952942939567,5.672953429995129
973.0,7.464965718781611,6.649226330972986
974.0,6.730946761080514,5.332370461953467
975.0,7.698269079464988,4.881392604248623
976.0,6.566129032258065,4.216935483870968
977.0,7.137303556658395,5.062531017369727
978.0,15.59510732514273,5.580990134963384
979.0,12.944140995380177,5.3813487260182775
980.0,12.059570497690087,7.224948556557526
981.0,9.452464241764005,7.328947527688676
982.0,7.983634933123524,6.150826121164437
983.0,8.761290322580646,6.501062155782848
984.0,12.462077104642015,12.34455153422502
985.0,12.459559402045635,10.383949645948071
986.0,11.79744295830055,7.8389344722940315
987.0,11.581094751039675,7.4271477276984745
988.0,13.371585927840846,5.839983515042523
989.0,16.284927503652916,6.674122363343449
990.0,14.88539207972725,8.042729759094826
991.0,10.714529242066615,6.767374770521899
992.0,8.839646322730509,7.979656063841744
993.0,7.416597354913641,7.455419429770334
994.0,9.176003147128245,7.632153160241279
995.0,9.32340863961635,6.2331272713648795
996.0,11.005528080626428,7.3414147090779664
997.0,10.21778033794163,7.898387096774194
998.0,11.127496159754225,8.385560675883257
999.0,10.56855285249884,7.595702497052834
1000.0,13.878531043910804,8.08580411653436
1001.0,24.703858455903173,9.339753056731082
1002.0,32.833880072805655,9.485544731130517
1003.0,21.507016126854012,9.954021606446908
1004.0,18.07533852104141,14.31681003874662
1005.0,12.47787382385666,13.630867647225394
1006.0,13.677492979516655,12.83924334742222
1007.0,17.92976031464312,13.269468063880081
1008.0,16.136244426960396,13.312296279644825
1009.0,12.958675208871904,10.354688846427635
1010.0,10.429376943539019,12.032969914952606
1011.0,13.298284065789964,10.543628938593534
1012.0,11.745813195459142,9.54701959461991
1013.0,12.771140084672737,40.16022254692593
1014.0,9.599153272638716,27.848300925405567
1015.0,7.882582143793788,24.793938031546215
1016.0,7.514967592072233,17.668802217976097
1017.0,7.816492450638792,18.147933760443593
1018.0,9.707017346671162,13.823198831066652
1019.0,10.967434715821813,11.555265819939304
1020.0,10.557281480648907,10.126570754186805
1021.0,10.055756622082349,9.17402495223109
1022.0,9.691922370836611,11.315966055973924
1023.0,11.441199280656402,9.87418886516054
1024.0,8.1455996403282,9.739110561612527
1025.0,8.259503203326965,10.12927203926417
1026.0,8.684826345959312,8.833322093589599
1027.0,7.977477426848001,9.014353152748118
1028.0,8.019086021505377,12.212339365329136
1029.0,7.150347495410438,10.244013899816416
1030.0,7.8578547075793335,11.662732756359821
1031.0,6.426960398636243,13.373931287699973
1032.0,6.746813532651455,10.717073170731707
1033.0,8.27309205350118,10.726357199055862
1034.0,7.304655127196432,10.787344913151365
1035.0,7.488440860215054,10.822704714640198
1036.0,6.896806976134277,11.201733946619864
1037.0,8.294164699711514,11.437176965442111
1038.0,9.478415945449777,9.835868183743871
1039.0,11.101573564122738,12.047462627852084
1040.0,9.174673110786408,10.689303510546626
1041.0,7.669030759432019,10.268352628226744
1042.0,9.00855157169083,9.979967030085046
1043.0,13.358721104492151,13.617442208984302
1044.0,12.142474991570191,23.625042149039004
1045.0,9.775922595631485,19.390862088344385
1046.0,8.425979730995465,13.259179124049307
1047.0,8.22584391742535,12.942827170207186
1048.0,8.778146191600165,10.062286913191713
1049.0,7.644295830055075,15.066243302986026
1050.0,8.928522723015249,17.898021805102843
1051.0,7.976081825334383,15.03878835562549
1052.0,10.210737701847066,15.03454909894721
1053.0,9.608515979169008,13.703348506987373
1054.0,8.59943894945862,12.072966543029484
1055.0,7.1944775392454385,11.434063916676031
1056.0,7.480633633348031,12.113660899813535
1057.0,7.8901632068429866,11.738243660352236
1058.0,8.522107567229519,11.736549052835441
1059.0,6.921163933103351,11.00714156024935
1060.0,8.719856160100061,13.298732070447254
1061.0,8.150059008654601,10.710916601101495
1062.0,8.906884343036978,12.757474429583006
1063.0,11.254720692368213,10.809205350118017
1064.0,9.629750953216728,10.571924993443483
1065.0,8.428181928221267,11.72063991607658
1066.0,9.059488289051625,12.049541043797534
1067.0,9.31643769291291,13.32315761867296
1068.0,9.176550868486352,15.213978494623657
1069.0,12.529720692368214,12.828206136900079
1070.0,9.706682099699409,11.670906211543505
1071.0,10.749712017591639,12.902388589642719
1072.0,9.826872137828078,13.106033004498778
1073.0,8.288032843107587,14.371564889346162
1074.0,8.31765922249793,12.927088502894954
1075.0,10.84758064516129,11.376612903225807
1076.0,9.583064516129031,10.661290322580644
1077.0,13.086290322580645,10.94758064516129
1078.0,11.17086435070306,12.14239040529363
1079.0,9.80841604631927,10.170388751033911
1080.0,10.79493382961125,7.971484698097601
1081.0,8.564805624483043,8.507113316790736
1082.0,7.567080231596361,6.935814722911497
1083.0,6.706451612903226,10.735483870967741
1084.0,9.126612903225805,11.02741935483871
1085.0,9.030645161290323,12.644354838709678
1086.0,10.804156327543424,12.11790736145575
1087.0,10.052481389578162,14.059760132340777
1088.0,9.691563275434241,12.202460711331678
1089.0,9.022394540942926,12.255665839536807
1090.0,9.720471464019852,13.65686517783292
1091.0,10.105645161290322,15.287903225806451
1092.0,9.22968509984639,10.463325652841782
1093.0,9.350395264321307,10.689776516428758
1094.0,10.329623281255852,7.8282576523921925
1095.0,8.031304559589374,8.203654790004123
1096.0,7.886403656663295,10.931587426473342
1097.0,9.132966168371361,8.239968528717544
1098.0,8.706530291109363,10.653815892997638
1099.0,7.47798883518789,7.909782323629687
1100.0,7.5466262035892235,7.161814843954891
1101.0,6.932636469221835,7.613952268554944
1102.0,7.693304859315873,8.362444269603985
1103.0,6.456801918249597,7.546682402307894
1104.0,6.813532651455547,9.317073170731707
1105.0,9.773294368888388,9.874939118054776
1106.0,10.134090142744745,11.564534861938482
1107.0,8.422624819968057,10.96643847372993
1108.0,8.409424133036744,12.44246392608605
1109.0,6.657804869335801,13.013128107810925
1110.0,9.722518260227078,12.810777084515031
1111.0,8.442147819184761,13.923784256168572
1112.0,8.555666704132479,11.42792327001611
1113.0,6.712318759132292,10.678861788617887
1114.0,8.523210070810386,11.204638267580833
1115.0,13.282848151062156,8.585009928440298
1116.0,16.134127608557193,9.077067176201716
1117.0,13.029472089276673,8.546803948373853
1118.0,10.878219990537703,8.42920355524421
1119.0,8.924901085898652,8.411606385917036
1120.0,9.704048834508278,9.1323889334703
1121.0,9.322763617733703,9.117232269739908
1122.0,9.761567569592746,8.410400509535048
1123.0,10.30873702746244,10.190082799445506
1124.0,9.808362369337978,10.389588250721218
1125.0,11.264808362369337,10.274549473605335
1126.0,10.153647296841632,12.140421865048143
1127.0,8.112461129219586,11.519980517777528
1128.0,7.784706455359483,13.80163350942265
1129.0,7.343966130905549,10.343981117230527
1130.0,7.4206061968453785,9.93044846577498
1131.0,9.917657637405867,9.817046944662994
1132.0,10.008116140533392,11.371989338798114
1133.0,8.495010076560952,11.169078855079622
1134.0,7.833910568234393,11.849516386065156
1135.0,9.33567320401529,11.386917722461973
1136.0,9.013749081869769,12.496304389686273
1137.0,10.539507699224457,10.6367314825222
1138.0,8.437956614589186,15.289517065677568
1139.0,8.625660334944364,26.419336105803453
1140.0,7.138098984676483,27.104829343224306
1141.0,7.224270353302611,18.741935483870968
1142.0,8.386328725038403,13.291858678955453
1143.0,11.484478262422748,10.073661272460972
1144.0,9.573911334976602,10.457400064301789
1145.0,8.797708355660344,9.12693351909406
1146.0,8.532110706247991,8.879903011467153
1147.0,9.058099019528402,11.840866139879918
1148.0,11.163708174430367,9.848415065438832
1149.0,9.486022202414716,10.52700152390014
1150.0,8.911821160865129,10.937392449157585
1151.0,9.381102592721351,11.534978866667885
1152.0,8.726424811777857,11.725789984081386
1153.0,8.253113452579171,9.718055210666778
1154.0,7.84706176544136,10.797883399421284
1155.0,8.988303173354314,9.950677194559963
1156.0,9.227024090517403,7.706118167172455
1157.0,7.93181222134802,6.164624779888351
1158.0,7.173597841969203,5.714772769847514
1159.0,6.6137274736802665,5.297141358510359
1160.0,6.253755947697726,5.08130081300813
1161.0,6.119965531452549,4.575212618485631
1162.0,6.139290397512269,4.36416020381402
1163.0,6.225821437937881,4.94093140009741
1164.0,5.1042561162938815,5.850088044659248
1165.0,5.12372522573152,5.6768142819677045
1166.0,6.126809598741149,6.3471085759244685
1167.0,6.601888276947285,8.594807238394964
1168.0,11.592297028961074,7.354426585740512
1169.0,21.586809594384658,6.437747938726842
1170.0,19.22613493094528,5.883049159502418
1171.0,14.6967473575711,5.447313047774138
1172.0,15.102504284607736,5.737031818930342
1173.0,21.24845322828965,5.326844777396439
1174.0,14.18222891959924,8.679203773068703
1175.0,11.445569144899466,7.583841517870757
1176.0,11.967895283925511,6.227826120293139
1177.0,9.90487604479517,5.506910699800385
1178.0,10.541710340477104,5.050154524693891
1179.0,9.982892935777498,4.850411644723028
1180.0,10.738477302252392,4.687775602437195
1181.0,9.526091888825864,5.085914771375771
1182.0,9.101755621832286,5.763256362871205
1183.0,9.585314991639894,6.666038569746966
1184.0,10.004154348691703,12.632832424133909
1185.0,9.450228236501633,12.887619988620848
1186.0,11.85252706904949,13.065340376906072
1187.0,11.904627027837098,13.630231164062792
1188.0,10.240715971675845,14.191306058221873
1189.0,8.3463217938631,14.131608969315499
1190.0,7.855310778914241,14.121715184893784
1191.0,8.55228166797797,11.47053501180173
1192.0,7.234663297625532,9.414300772660331
1193.0,7.72338003590954,9.13094070891081
1194.0,7.136286792148319,10.34934132219734
1195.0,7.784036393713813,8.934780810587261
1196.0,10.63072787427626,10.994003308519437
1197.0,8.558870967741935,12.80725806451613
1198.0,8.328742762613729,11.313482216708024
1199.0,7.079969335673505,14.935399644939377
1200.0,6.1141782162238485,15.75600627408259
1201.0,6.5553778571284465,14.996049950573946
1202.0,10.607969266505851,11.001558001400646
1203.0,13.582424787381512,14.595354239256677
1204.0,10.624414596680529,14.51718931475029
1205.0,9.608332396688022,12.622756734479786
1206.0,10.984890037840469,10.946940916413773
1207.0,8.63479997579132,9.843079343944805
1208.0,8.480421231011317,8.619494038612842
1209.0,8.25940809780306,6.75876354172971
1210.0,8.298075410034498,7.521395932941959
1211.0,7.1522635114688615,7.711907643890335
1212.0,8.838414634146343,7.522206923682139
1213.0,7.562006856243677,9.79318871529729
1214.0,8.775991907384512,9.433307107264621
1215.0,9.711520737327188,9.884946236559141
1216.0,9.28479262672811,12.556182795698925
1217.0,7.886141395976171,12.151271964332548
1218.0,7.600904799370573,11.96618897755798
1219.0,8.273186654677605,10.029177438087745
1220.0,8.172480424112997,11.648862912592259
1221.0,7.947855082237458,10.429073470458206
1222.0,7.660866958900003,10.549863249784572
1223.0,6.784519126297253,8.924335918474393
1224.0,6.2213686261286565,7.464856131280206
1225.0,6.604724438949459,8.882634595931211
1226.0,6.827033456970514,10.544854070660522
1227.0,7.260349930688246,11.519988010940017
1228.0,6.782023903188341,14.12466749091454
1229.0,8.536787681240867,13.532149413660035
1230.0,6.6476227942002915,13.28299052114945
1231.0,7.426907946498819,12.740283241542091
1232.0,6.333831628638867,13.924036191974823
1233.0,5.7492918961447685,11.84525963808025
1234.0,6.537844217151849,11.659166011014948
1235.0,6.413690007867821,12.091188040912666
1236.0,8.135641227380017,9.952753737214792
1237.0,7.557199055861526,7.327281667977971
1238.0,8.856018882769472,8.437450826121164
1239.0,8.372934697088906,10.962077104642015
1240.0,8.279307631785995,9.64012588512982
1241.0,8.601494885916601,9.815342250196696
1242.0,7.506996740474317,10.196832265557678
1243.0,7.605111273462965,12.247432655202129
1244.0,8.423926604473419,12.913635682439773
1245.0,8.421692417207758,13.202247948746768
1246.0,6.569697506794281,12.544239631336406
1247.0,6.910194375516955,13.033333333333333
1248.0,7.561952026468155,11.940053763440861
1249.0,7.916459884201819,12.809139784946236
1250.0,10.46774193548387,10.460483870967742
1251.0,10.833064516129031,10.65241935483871
1252.0,8.5,9.716129032258063
1253.0,8.65967741935484,10.216935483870968
1254.0,9.03467741935484,11.184677419354838
1255.0,7.582690794649881,8.744472856018882
1256.0,7.063178599527931,8.048918174665618
1257.0,11.896105428796222,11.08050747442958
1258.0,12.679445318646733,10.76774193548387
1259.0,9.85302911093627,9.651612903225807
1260.0,8.87386067905344,9.897655792935101
1261.0,6.638818616474006,19.29296637011035
1262.0,6.977473824366035,36.4021283463455
1263.0,6.112655086848635,24.393589743589743
1264.0,7.4192307692307695,14.650827129859387
1265.0,5.595967741935484,9.654032258064515
1266.0,6.029032258064516,8.026612903225807
1267.0,8.10483870967742,5.995967741935484
1268.0,5.899193548387097,6.283064516129032
1269.0,8.059087332808812,7.995180959874115
1270.0,7.6060118219048185,6.368072283080151
1271.0,7.286876878694345,5.766697431862656
1272.0,6.35795456837943,4.575687425608747
1273.0,5.118493413221973,5.262843712804374
1274.0,5.270778683681909,4.738349285123479
1275.0,5.341485894121615,4.785190700985351
1276.0,5.925773669027013,4.6677681615525835
1277.0,7.985102656326102,4.895750440223296
1278.0,15.373009628713799,5.158742647334307
1279.0,16.149638454909894,5.654640140871454
1280.0,12.48782491790195,4.98198678589508
1281.0,11.413276664113763,4.607661932904829
1282.0,12.940732569902057,5.042738907723447
1283.0,19.22490901471012,5.333796863850108
1284.0,15.135889373040122,8.157887904031757
1285.0,11.077054106732257,8.125919981737594
1286.0,8.556491910434055,7.558258031406806
1287.0,9.623899441759395,8.902626353452476
1288.0,8.420628676332846,10.947472930950507
1289.0,8.485688059645572,12.638173916301376
1290.0,8.887246637443333,13.151886403656665
1291.0,7.302461503877711,9.196283391405343
1292.0,7.2059907834101375,8.861084260612191
1293.0,6.096774193548386,8.34083398898505
1294.0,6.86191974822974,10.096852871754525
1295.0,7.862903225806451,13.308300550747443
1296.0,8.109972462627852,13.523623131392604
1297.0,7.167568944299864,13.253778066936997
1298.0,7.269671568924126,12.885356775403983
1299.0,6.659698097601323,12.740632754342432
1300.0,6.218961952026468,11.486042183622828
1301.0,5.905045492142266,11.628908188585608
1302.0,11.574193548387095,9.839516129032258
1303.0,12.856451612903225,12.242741935483869
1304.0,10.226612903225806,11.699193548387097
1305.0,11.418548387096774,12.133064516129032
1306.0,9.117348544453186,11.817584579071596
1307.0,10.479642014162078,11.376534225019668
1308.0,8.163611329661684,10.085444531864674
1309.0,8.7213217938631,9.842722265932336
1310.0,7.670338316286388,12.139103068450039
1311.0,6.383870967741935,13.251612903225805
1312.0,7.217741935483871,13.173387096774194
1313.0,9.704032258064515,9.474193548387097
1314.0,8.794492525570416,6.784441384736429
1315.0,8.364988198269078,6.218430369787569
1316.0,7.454268292682927,10.027360346184107
1317.0,8.111408339889849,10.751986624704957
1318.0,10.210542879622345,12.894138473642801
1319.0,8.59032258064516,13.80544846577498
1320.0,8.670967741935485,12.871675845790715
1321.0,7.675806451612903,10.857612116443743
1322.0,7.460739575137687,11.713414634146341
1323.0,8.091122475740887,10.522029897718333
1324.0,9.481045108838185,10.151494885916602
1325.0,8.509474167322319,11.376553894571202
1326.0,6.947075793338579,10.072147915027537
1327.0,7.546390168970813,9.417588325652842
1328.0,7.583515042523697,11.756197782023904
1329.0,6.825743696377055,12.857803192087221
1330.0,6.727358472893484,14.333081375744634
1331.0,9.039620096661796,14.92669813794912
1332.0,13.089318496871604,16.008279944550598
1333.0,8.800363418380726,14.425855157169083
1334.0,7.138660971863175,13.601176426510808
1335.0,6.42967667003859,12.108534712075233
1336.0,5.834730808137574,10.646049230077555
1337.0,5.855546813532651,8.160881945224983
1338.0,5.056412273800158,6.843619572140422
1339.0,5.716915814319433,5.550688434303698
1340.0,4.95926435877262,4.7176829268292675
1341.0,6.042800944138474,6.676553894571203
1342.0,9.08882769472856,9.79594807238395
1343.0,7.636860739575137,10.55997246262785
1344.0,6.567623918174665,12.755389457120376
1345.0,10.944295830055074,13.021243115656961
1346.0,9.203225806451613,14.370967741935484
1347.0,8.254032258064516,13.664516129032258
1348.0,7.77016129032258,12.549193548387098
1349.0,7.912411487018096,11.13705743509048
1350.0,7.998544453186467,12.842722265932338
1351.0,10.2662077104642,12.35200629425649
1352.0,8.290361919748229,8.818745082612116
1353.0,8.957277734067663,12.62509834775767
1354.0,10.995161290322581,11.791935483870967
1355.0,9.183064516129033,11.378225806451614
1356.0,9.217741935483872,8.295967741935485
1357.0,7.9645161290322575,5.955645161290322
1358.0,8.499193548387098,6.4443548387096765
1359.0,10.433995037220843,13.92437965260546
1360.0,8.620223325062035,14.099689826302729
1361.0,8.056079404466502,12.472022332506203
1362.0,6.500620347394541,9.944478908188586
1363.0,6.910794044665012,11.707320099255583
1364.0,7.449193548387097,14.094354838709677
1365.0,6.0892886683209255,12.35039288668321
1366.0,5.968031430934657,11.306244830438379
1367.0,8.115014928685268,11.81704845770542
1368.0,12.095912263713206,9.836032096673323
1369.0,10.713131190865258,13.864662389800076
1370.0,12.427616050354052,13.36591266719119
1371.0,10.763808025177024,14.25916601101495
1372.0,8.89645948072384,12.726829268292683
1373.0,7.151612903225806,13.19543666404406
1374.0,10.307644899029636,13.179187741186169
1375.0,9.170066689146154,11.446122288411825
1376.0,7.662531377617924,10.692770034843207
1377.0,11.273950020606197,9.380390393765689
1378.0,55.09291521486643,7.5694241504627024
1379.0,39.57446460918365,7.122930558423578
1380.0,30.637489511750758,7.388243402313993
1381.0,25.948719322687815,8.692548137034258
1382.0,20.308077019254814,8.69996070446183
1383.0,15.495373843460865,8.226199406994606
1384.0,10.31782945736434,6.618726110098954
1385.0,10.849498088807916,6.932911799378417
1386.0,9.570925832503422,6.46488233556647
1387.0,7.32309732485386,6.008401229227167
1388.0,6.616751748912838,4.919983131671419
1389.0,6.656963021243115,5.745348619384811
1390.0,23.060048330898052,6.663380914915139
1391.0,20.606566820276498,5.58010752688172
1392.0,28.453149001536097,6.152073732718893
1393.0,18.490015360983104,5.494623655913978
1394.0,14.212749615975422,6.525345622119815
1395.0,10.846390168970814,5.7949308755760365
1396.0,11.004644018147395,5.980905940770906
1397.0,15.399046190118959,13.289143714500053
1398.0,11.114653663415854,14.22291287107491
1399.0,13.36185832172329,11.99164076733469
1400.0,11.509270174686527,9.046511627906977
1401.0,8.907170172334023,8.918705286077618
1402.0,8.847195683938406,6.802911093627065
1403.0,8.86965643849987,5.893915552058747
1404.0,9.721464163950396,7.526143643924918
1405.0,10.266876475216364,6.013532651455547
1406.0,8.900157356412274,6.840519276160503
1407.0,8.645594020456333,5.325845790715972
1408.0,10.270712037765538,8.26787962234461
1409.0,10.025352178636995,11.740180210557865
1410.0,8.476966018508111,13.148394589936682
1411.0,10.26070960248773,14.733245288674084
1412.0,8.997782023903188,15.310761117979842
1413.0,6.851448053651044,15.760799520437597
1414.0,12.15229852759357,15.244839084335542
1415.0,10.165224232887489,17.592371960585965
1416.0,9.586152635719905,16.97163837997827
1417.0,10.787793638305047,16.53055337004983
1418.0,9.330167472181634,16.23931287699974
1419.0,9.372485107339552,12.791465287924769
1420.0,9.527368775991906,12.358660222546925
1421.0,8.279007905286425,13.424206661421453
1422.0,8.003559252182383,10.348432055749129
1423.0,7.8416694766026,12.293806901202652
1424.0,7.549998126709378,12.506537784271853
1425.0,7.711775504851823,11.058502866134651
1426.0,7.489528305421302,8.735472631224008
1427.0,7.822599378067513,9.898242853396276
1428.0,7.324753662283166,8.356674534487281
1429.0,7.106646435127946,8.61996553145255
1430.0,8.132048255966431,8.172117942377579
1431.0,8.913566370686748,8.586827020343936
1432.0,8.089355962684051,9.680903675396202
1433.0,9.221310554119366,7.798358997414859
1434.0,7.445037653141508,9.695796335843543
1435.0,10.616912067738188,12.15703795286801
1436.0,13.763852984151962,9.497058933722977
1437.0,9.009463864223896,7.658521599040874
1438.0,9.500798021805103,8.54617661383987
1439.0,8.451893896819152,7.868052901727173
1440.0,9.051062155782848,9.224272226593234
1441.0,7.89516129032258,9.004032258064516
1442.0,6.690322580645161,9.812096774193549
1443.0,7.829032258064515,9.065322580645162
1444.0,9.070554681353265,10.671007081038551
1445.0,9.590519276160503,7.898406766325727
1446.0,7.58477576711251,9.08589693154996
1447.0,8.349645948072384,9.497521636506688
1448.0,8.842564909520062,10.717309205350118
1449.0,7.366129032258064,8.776042486231313
1450.0,6.3717741935483865,9.321892210857591
1451.0,5.482258064516129,11.812155782848151
1452.0,9.721066089693155,10.466660110149489
1453.0,7.655841856805664,10.845908733280883
1454.0,7.588808025177025,10.897147915027539
1455.0,7.22555579091771,9.341346910367367
1456.0,7.447858540620146,7.925915390667555
1457.0,6.907721559845871,8.2928554136658
1458.0,8.58454153373508,9.691648942455394
1459.0,8.17170625073851,9.277679309937374
1460.0,6.956490015360983,9.673579109062981
1461.0,5.846390168970814,10.908563748079878
1462.0,6.855453149001536,9.89500768049155
1463.0,8.002315963606286,8.341749379652605
1464.0,7.334222497932175,9.33014888337469
1465.0,7.909449958643507,8.58120347394541
1466.0,6.276902398676592,9.99423076923077
1467.0,8.496112489660877,10.066873449131513
1468.0,10.58847926267281,7.797350230414747
1469.0,9.71520737327189,8.842626728110599
1470.0,8.372788580420366,7.755735079240193
1471.0,7.672684612790828,8.080690120265256
1472.0,7.200455209621221,10.883893447229402
1473.0,7.438375295043273,7.932730133752949
1474.0,8.591480274249747,6.878884268105354
1475.0,9.73618822824173,6.649231950844854
1476.0,9.767031958338016,11.307110074556967
1477.0,11.49499831403844,8.666554269229328
1478.0,9.44303323217564,6.5260574725562925
1479.0,8.603544265857405,11.670248398336518
1480.0,9.031418830317335,8.737889176126785
1481.0,8.967434715821813,9.104454685099846
1482.0,12.18763440860215,8.53110599078341
1483.0,10.040475253830879,12.23856824397737
1484.0,7.823060207560601,11.698719605859653
1485.0,8.541939230452211,12.100018732906223
1486.0,6.823734592184631,13.571514742797198
1487.0,7.664141903205632,12.600362121487219
1488.0,7.6326216990457745,10.417018196856906
1489.0,11.134916840306296,10.174849344204183
1490.0,9.358174391828994,11.208589109552918
1491.0,9.000792546032514,10.311660801826026
1492.0,8.617848713049343,9.292720392641714
1493.0,10.154755420294364,9.062376254744468
1494.0,9.881216082632289,11.596088280982066
1495.0,7.81102503580867,12.516690875345478
1496.0,6.916212753938953,12.606968569065344
1497.0,7.002461215679154,10.413564929693962
1498.0,6.605035405192761,10.561290322580646
1499.0,13.357142857142856,11.764516129032257
1500.0,11.280538383724851,12.350629425649096
1501.0,11.086960672424873,11.570103794710406
1502.0,9.884894576967746,11.631934273437029
1503.0,11.335297406501184,9.773225201234643
1504.0,12.335148984244185,10.064818737517399
1505.0,10.614388024773548,8.978357441142649
1506.0,8.872698662470496,8.141148701809598
1507.0,9.052849275036529,7.668659847888801
1508.0,8.022359596867858,9.616203963882956
1509.0,9.126181109737365,7.085199130793152
1510.0,8.111849860079602,10.850312551335367
1511.0,8.893926503603922,10.46685572492024
1512.0,6.866087675765095,11.231277324825712
1513.0,7.643105281814959,10.371015006498878
1514.0,9.758111780692424,11.638118870376935
1515.0,8.716464351279457,10.093323592222099
1516.0,8.2568946461354,13.294498145442283
1517.0,7.118511425631803,9.619064622762497
1518.0,6.860743105570013,8.985602896971898
1519.0,6.676309790393189,9.752183824567775
1520.0,9.28814849115656,10.040584254881733
1521.0,10.280843193912924,10.914188946593388
1522.0,11.152001414987893,12.63321405264208
1523.0,10.138943272403466,11.35515934732812
1524.0,8.27285479906562,12.946659138652258
1525.0,7.3383350192948935,12.697707092278296
1526.0,8.461522610617811,10.486905698550073
1527.0,15.910868832190626,10.2806264283841
1528.0,12.3686261286576,11.958660222546925
1529.0,10.622786707129745,12.13393278633247
1530.0,10.379926970485585,12.087290155425482
1531.0,9.793031935282132,8.451198185501884
1532.0,9.209419193447516,6.422373286299329
1533.0,8.604171962315156,5.522092941152737
1534.0,9.36015049728661,5.064675502834433
1535.0,7.976435877261998,8.570220298977183
1536.0,8.110483870967743,8.554032258064517
1537.0,8.90241935483871,10.629032258064516
1538.0,8.278763440860216,11.587841191066996
1539.0,5.976881720430107,10.373759305210918
1540.0,7.009408602150538,10.631775403982328
1541.0,8.34369918699187,12.14144828420989
1542.0,9.277799632835038,13.989508563820129
1543.0,7.624306882469746,13.358455097223782
1544.0,6.317710089543292,11.833426997864446
1545.0,9.072309018021055,12.14802742497471
1546.0,9.062792701659735,11.841107489415906
1547.0,8.823292495597766,11.583417631411336
1548.0,11.466561762391816,13.856992993893073
1549.0,9.523996852871754,9.724476415271065
1550.0,9.00227800852652,8.262902398073386
1551.0,9.125872060349582,8.690300623936473
1552.0,8.126901411764091,8.4054178178691
1553.0,7.375432272702321,9.81522811016343
1554.0,11.682877426673741,8.802160906080179
1555.0,12.359770219290283,7.028006415299885
1556.0,12.299869374003912,6.726827755250257
1557.0,9.647112106356795,7.41139774859287
1558.0,8.439272024854244,5.851106034013194
1559.0,6.861364966006979,5.935495975307147
1560.0,7.996852871754524,6.753107789142407
1561.0,10.143531527481173,5.778430931774755
1562.0,13.905099097073919,5.16717245513469
1563.0,17.023509797309952,6.136000899179498
1564.0,14.518799342692816,5.694727253241881
1565.0,10.168270639088343,5.771557175008038
1566.0,9.732556135549567,5.853857715299904
1567.0,10.767668049416535,6.099496389776887
1568.0,8.615438310797213,5.91993852121567
1569.0,16.466502753737213,6.298898505114083
1570.0,13.323554756284889,7.367652017534001
1571.0,9.671612153909557,10.659593121276835
1572.0,9.11576936045858,10.138144520048533
1573.0,7.87920647409239,8.356483747042363
1574.0,7.2698156682027655,6.845433061562094
1575.0,7.292204301075269,6.487923904052936
1576.0,7.882795698924731,5.500413564929694
1577.0,5.904838709677419,4.958064516129032
1578.0,7.887344913151365,5.0731389578163775
1579.0,6.575930521091812,5.443424317617866
1580.0,8.54390546510924,7.015103189493432
1581.0,10.745438177086484,8.855781335108635
1582.0,21.558763541729707,14.815154632935908
1583.0,25.47625885129819,38.54272226593233
1584.0,39.49095200629425,31.417444082274923
1585.0,40.51943351691581,43.11981566820276
1586.0,65.80802517702597,149.90648533213442
1587.0,81.7356224944738,206.23923794537484
1588.0,66.58771683338954,596.4697369899966
1589.0,76.61565227979469,754.5510424862314
1590.0,46.80523959387059,543.3760818253344
1591.0,46.759263422127304,382.9284402982279
