time,Engagement,Excitement,Stress,Relaxation,Interest,Focus
137.0,0.0,0.22683899999999999,0.0,0.0,0.0,0.0
138.0,0.042637037037037036,0.23786699999999997,0.03226148148148148,0.047552222222222225,0.04618333333333333,0.01215385185185185
139.0,0.09136507936507936,0.25047042857142854,0.06913174603174603,0.10189761904761904,0.09896428571428571,0.026043968253968253
140.0,0.14496592592592594,0.26433419999999996,0.10968903703703703,0.16167755555555557,0.15702333333333335,0.04132309629629629
141.0,0.20218207885304662,0.27913306451612907,0.15298186379928316,0.22548956989247315,0.2189983870967742,0.05763278136200717
142.0,0.26613763440860216,0.295675064516129,0.2013740860215054,0.2968179032258065,0.2882733870967742,0.07586355913978493
143.0,0.3300931899641577,0.3122170645161291,0.24976630824372759,0.3681462365591398,0.35754838709677417,0.09409433691756272
144.0,0.39404874551971325,0.328759064516129,0.2981585304659498,0.43947456989247313,0.42682338709677425,0.1123251146953405
145.0,0.45800430107526885,0.3453010645161291,0.34655075268817204,0.5108029032258065,0.49609838709677423,0.13055589247311827
146.0,0.5219598566308243,0.361843064516129,0.39494297491039426,0.5821312365591398,0.5653733870967742,0.14878667025089604
147.0,0.5482747641577062,0.3614047806451613,0.4188465146953405,0.6103622623655914,0.5973800516129033,0.1573998594982079
148.0,0.5557693476702508,0.35247635483870965,0.4305057132616487,0.6170446344086022,0.6107525483870968,0.16120425448028675
149.0,0.5538537691756271,0.33930285806451616,0.436042741218638,0.6129526795698925,0.6148079612903226,0.1626042523297491
150.0,0.5472331096774192,0.32400682580645157,0.43851868387096776,0.6034735612903226,0.6142048322580644,0.16280205161290323
151.0,0.5382599096774194,0.3076495258064516,0.43946408387096775,0.5913008612903226,0.6112724322580645,0.16239875161290324
152.0,0.5292867096774194,0.29129222580645164,0.44040948387096773,0.5791281612903226,0.6083400322580645,0.16199545161290324
153.0,0.5203135096774194,0.2749349258064516,0.4413548838709677,0.5669554612903226,0.6054076322580645,0.16159215161290325
154.0,0.5113403096774194,0.2585776258064516,0.44230028387096776,0.5547827612903226,0.6024752322580644,0.16118885161290322
155.0,0.5023671096774194,0.24222032580645164,0.44324568387096774,0.5426100612903226,0.5995428322580645,0.1607855516129032
156.0,0.49339390967741936,0.22586302580645162,0.44419108387096773,0.5304373612903226,0.5966104322580645,0.1603822516129032
157.0,0.4879462838709677,0.2204127193548387,0.4433025225806452,0.5256086612903226,0.5970701870967742,0.16267779032258065
158.0,0.4842614451612903,0.22041590967741936,0.4414969806451613,0.5244519612903227,0.5992260193548387,0.16632274838709676
159.0,0.481458,0.22314584838709678,0.43923294838709676,0.5251312612903226,0.6022298903225807,0.17064241612903225
160.0,0.47909525161290323,0.22723916129032257,0.4367396709677419,0.5267285612903226,0.6056577806451613,0.17529943870967743
161.0,0.47695285161290324,0.23201416129032257,0.4341317709677419,0.5287848612903225,0.6092976806451613,0.18012513870967745
162.0,0.47481045161290325,0.23678916129032257,0.4315238709677419,0.5308411612903225,0.6129375806451614,0.18495083870967743
163.0,0.47266805161290326,0.24156416129032257,0.4289159709677419,0.5328974612903226,0.6165774806451614,0.18977653870967742
164.0,0.4705256516129033,0.24633916129032257,0.4263080709677419,0.5349537612903226,0.6202173806451613,0.1946022387096774
165.0,0.46838325161290323,0.2511141612903226,0.42370017096774193,0.5370100612903226,0.6238572806451612,0.19942793870967745
166.0,0.4662408516129032,0.2558891612903226,0.42109227096774193,0.5390663612903226,0.6274971806451612,0.20425363870967744
167.0,0.47584828387096767,0.25841383870967743,0.4194952096774194,0.5379433064516128,0.6275870935483872,0.20391278387096773
168.0,0.49133063225806445,0.2598133548387097,0.4184035677419355,0.5352305741935484,0.6259020129032258,0.20098865161290325
169.0,0.5097504387096774,0.26065029032258064,0.41756463548387096,0.5317230032258065,0.623329435483871,0.1967728806451613
170.0,0.5296389741935483,0.26120593548387094,0.41685205806451614,0.5278180129032257,0.6203131096774195,0.19191129032258064
171.0,0.5502618741935483,0.261620935483871,0.4162026580645161,0.5237143129032258,0.6170749096774194,0.18672679032258066
172.0,0.5708847741935483,0.26203593548387094,0.4155532580645161,0.5196106129032259,0.6138367096774193,0.18154229032258062
173.0,0.5915076741935483,0.262450935483871,0.41490385806451613,0.5155069129032257,0.6105985096774194,0.17635779032258064
174.0,0.6121305741935483,0.26286593548387094,0.4142544580645161,0.5114032129032258,0.6073603096774194,0.17117329032258063
175.0,0.6327534741935483,0.263280935483871,0.4136050580645161,0.5072995129032258,0.6041221096774194,0.16598879032258063
176.0,0.6533763741935483,0.26369593548387094,0.41295565806451606,0.5031958129032258,0.6008839096774194,0.16080429032258062
177.0,0.654590758064516,0.26640285806451613,0.4141678322580645,0.5022570161290323,0.6010792580645161,0.16564781612903223
178.0,0.6461008838709676,0.27025574193548385,0.41631079354838707,0.5029006709677419,0.6029913806451612,0.17550535483870966
179.0,0.6327588806451612,0.2746816064516129,0.4189191483870967,0.5043355516129032,0.6057618903225805,0.18786989999999998
180.0,0.6169908129032258,0.27939396129032257,0.4217601999999999,0.5061660451612903,0.608961593548387,0.20148794838709674
181.0,0.6000097129032258,0.2842495612903226,0.4247176,0.5081943451612903,0.6123758935483871,0.21573274838709677
182.0,0.5830286129032258,0.2891051612903226,0.42767499999999997,0.5102226451612902,0.6157901935483872,0.22997754838709678
183.0,0.5660475129032259,0.29396076129032256,0.4306324,0.5122509451612902,0.6192044935483871,0.24422234838709678
184.0,0.5490664129032258,0.2988163612903225,0.4335898,0.5142792451612903,0.6226187935483871,0.2584671483870968
185.0,0.5320853129032259,0.3036719612903226,0.4365472,0.5163075451612903,0.6260330935483871,0.2727119483870968
186.0,0.5151042129032258,0.30852756129032255,0.4395046,0.5183358451612903,0.6294473935483871,0.2869567483870967
187.0,0.5154713451612903,0.3113534322580645,0.4444389806451613,0.5204233451612903,0.6319994483870968,0.2905429677419355
188.0,0.5245125935483871,0.3131644387096774,0.45036185161290326,0.5225404451612903,0.6341203806451612,0.28879989677419354
189.0,0.5378909000000001,0.3144680129032258,0.4567789677419355,0.5246723451612902,0.6360257516129032,0.28439218064516125
190.0,0.5534377354838709,0.315517870967742,0.46344320645161297,0.5268116451612903,0.6378233419354838,0.2786521419354838
191.0,0.570068835483871,0.3164408709677419,0.4702310064516129,0.5289546451612903,0.6395670419354837,0.27224594193548385
192.0,0.5866999354838709,0.3173638709677419,0.4770188064516129,0.5310976451612903,0.6413107419354838,0.2658397419354839
193.0,0.6033310354838709,0.3182868709677419,0.48380660645161294,0.5332406451612903,0.6430544419354838,0.25943354193548385
194.0,0.6199621354838709,0.3192098709677419,0.49059440645161295,0.5353836451612903,0.6447981419354838,0.2530273419354838
195.0,0.6365932354838708,0.3201328709677419,0.4973822064516129,0.5375266451612903,0.6465418419354838,0.24662114193548385
196.0,0.6532243354838708,0.3210558709677419,0.5041700064516129,0.5396696451612903,0.6482855419354838,0.24021494193548384
197.0,0.6639170612903225,0.32089907741935486,0.49932203870967745,0.5352599741935484,0.6487729838709677,0.24130071612903223
198.0,0.6716405999999999,0.3202023870967742,0.4886561870967742,0.5275739677419355,0.6486322967741935,0.24613247741935482
199.0,0.6778795451612902,0.3192357483870968,0.47508139354838713,0.5182497935483872,0.6481775451612903,0.2528372322580645
200.0,0.6833761935483871,0.31813413548387093,0.4600521290322581,0.508106535483871,0.6475657612903225,0.2604784838709677
201.0,0.688501693548387,0.31696503548387095,0.4442956290322581,0.497553735483871,0.6468754612903227,0.2685879838709677
202.0,0.693627193548387,0.31579593548387097,0.4285391290322581,0.487000935483871,0.6461851612903227,0.2766974838709677
203.0,0.698752693548387,0.31462683548387094,0.41278262903225804,0.476448135483871,0.6454948612903226,0.2848069838709677
204.0,0.7038781935483871,0.31345773548387096,0.3970261290322581,0.46589533548387096,0.6448045612903226,0.2929164838709677
205.0,0.709003693548387,0.312288635483871,0.38126962903225803,0.455342535483871,0.6441142612903226,0.3010259838709677
206.0,0.714129193548387,0.31111953548387095,0.3655131290322581,0.44478973548387096,0.6434239612903225,0.3091354838709677
207.0,0.708972629032258,0.31291394516129034,0.35983719677419357,0.4425932709677419,0.6424871064516129,0.3149390225806451
208.0,0.6986750322580644,0.31619010967741934,0.3592015483870968,0.4445749741935484,0.6414269741935484,0.31958958064516124
209.0,0.6858069193548386,0.32020715161290325,0.3610860419354839,0.4486457612903226,0.6403052032258064,0.3236636483870967
210.0,0.6716535483870967,0.3245946322580645,0.3642306064516129,0.4537610903225806,0.6391526129032258,0.3274494709677419
211.0,0.6568575483870966,0.3291673322580645,0.36800520645161294,0.4593986903225806,0.6379846129032258,0.3310911709677419
212.0,0.6420615483870967,0.3337400322580645,0.3717798064516129,0.4650362903225806,0.6368166129032258,0.33473287096774196
213.0,0.6272655483870967,0.33831273225806446,0.37555440645161287,0.47067389032258067,0.6356486129032257,0.33837457096774193
214.0,0.6124695483870968,0.34288543225806445,0.37932900645161294,0.4763114903225806,0.6344806129032258,0.3420162709677419
215.0,0.5976735483870967,0.3474581322580645,0.3831036064516129,0.4819490903225806,0.6333126129032258,0.3456579709677419
216.0,0.5828775483870967,0.3520308322580644,0.3868782064516129,0.48758669032258056,0.6321446129032258,0.34929967096774195
217.0,0.5716597677419355,0.3539005129032258,0.3874770129032258,0.4841169870967741,0.6317216451612903,0.3529092677419355
218.0,0.5622310967741935,0.35441868387096764,0.3864879225806451,0.47609363225806445,0.631671193548387,0.3565028129032258
219.0,0.5536969806451613,0.3542611,0.3847048838709677,0.4657934516129032,0.631807,0.36008833225806447
220.0,0.5456101419354837,0.35376563870967737,0.3825248709677419,0.45435485806451603,0.6320359354838709,0.3636698387096774
221.0,0.5377469419354838,0.35310123870967736,0.38014637096774195,0.44234705806451613,0.6323114354838709,0.36724933870967735
222.0,0.5298837419354838,0.35243683870967735,0.3777678709677419,0.4303392580645161,0.6325869354838709,0.3708288387096774
223.0,0.5220205419354838,0.35177243870967734,0.37538937096774194,0.4183314580645161,0.632862435483871,0.3744083387096774
224.0,0.5141573419354838,0.3511080387096774,0.373010870967742,0.4063236580645161,0.6331379354838709,0.3779878387096774
225.0,0.5062941419354838,0.35044363870967743,0.37063237096774193,0.3943158580645161,0.633413435483871,0.3815673387096774
226.0,0.4984309419354838,0.3497792387096774,0.36825387096774187,0.38230805806451607,0.6336889354838708,0.38514683870967736
227.0,0.4967783741935483,0.3512282838709677,0.36838205483870967,0.3783798451612903,0.6354782419354839,0.3840497451612903
228.0,0.4982311225806451,0.3537340516129032,0.36976358064516124,0.37849142580645156,0.6380244516129031,0.38061435483870965
229.0,0.501236529032258,0.35676818064516125,0.37177177741935485,0.3806229032258064,0.6409491129032258,0.37600981612903217
230.0,0.505018264516129,0.36006649032258065,0.37409330967741933,0.3837643290322581,0.6440629999999999,0.3708207032258064
231.0,0.5091881645161289,0.3634968903225806,0.37657150967741937,0.38741072903225804,0.6472715,0.36533930322580643
232.0,0.513358064516129,0.36692729032258065,0.37904970967741936,0.3910571290322581,0.65048,0.3598579032258064
233.0,0.517527964516129,0.37035769032258065,0.38152790967741934,0.3947035290322581,0.6536885,0.3543765032258064
234.0,0.521697864516129,0.37378809032258065,0.3840061096774193,0.3983499290322581,0.6568970000000001,0.3488951032258064
235.0,0.5258677645161289,0.37721849032258065,0.3864843096774193,0.4019963290322581,0.6601055,0.34341370322580644
236.0,0.530037664516129,0.38064889032258065,0.3889625096774193,0.40564272903225806,0.663314,0.3379323032258064
237.0,0.5359342225806452,0.3909665677419355,0.4018835483870967,0.41654977419354844,0.6673422677419356,0.34273095483870963
238.0,0.5426941096774194,0.40472788387096775,0.4200260064516128,0.43108714193548386,0.6717804193548387,0.3526696322580645
239.0,0.5498856612903225,0.42021101935483873,0.44077917419354834,0.44743967096774195,0.6764235129032259,0.3651783225806452
240.0,0.5572930451612903,0.436555064516129,0.4628376967741935,0.46469978064516126,0.6811690774193548,0.3789720193548387
241.0,0.5648083451612903,0.45332956451612905,0.48554889677419355,0.48241368064516127,0.6859658774193549,0.3934082193548387
242.0,0.5723236451612903,0.47010406451612896,0.5082600967741935,0.5001275806451613,0.6907626774193547,0.4078444193548387
243.0,0.5798389451612903,0.486878564516129,0.5309712967741935,0.5178414806451612,0.6955594774193549,0.4222806193548387
244.0,0.5873542451612903,0.503653064516129,0.5536824967741936,0.5355553806451612,0.7003562774193548,0.43671681935483875
245.0,0.5948695451612903,0.5204275645161289,0.5763936967741935,0.5532692806451612,0.7051530774193548,0.45115301935483876
246.0,0.6023848451612903,0.5372020645161291,0.5991048967741934,0.5709831806451612,0.7099498774193548,0.46558921935483877
247.0,0.5969140290322581,0.5365842548387096,0.5988885096774192,0.5712599193548387,0.7067766129032258,0.4602983483870968
248.0,0.5849501548387097,0.5272702903225805,0.5872083290322581,0.5628180774193547,0.6996183161290321,0.4451439419354839
249.0,0.5697397516129032,0.5136082483870967,0.5697962516129031,0.5500169451612902,0.6904675032258064,0.4250577677419355
250.0,0.5529060838709676,0.49777216774193545,0.5495182258064515,0.5350361677419354,0.6803204322580645,0.4025057096774194
251.0,0.5352607838709678,0.4808490677419355,0.5278072258064516,0.5189655677419354,0.6696752322580645,0.37872070967741933
252.0,0.5176154838709677,0.46392596774193545,0.5060962258064516,0.5028949677419354,0.6590300322580644,0.35493570967741933
253.0,0.4999701838709678,0.44700286774193543,0.4843852258064516,0.48682436774193544,0.6483848322580644,0.33115070967741933
254.0,0.4823248838709678,0.43007976774193546,0.46267422580645157,0.47075376774193545,0.6377396322580645,0.30736570967741933
255.0,0.46467958387096775,0.4131566677419355,0.44096322580645153,0.45468316774193546,0.6270944322580645,0.28358070967741933
256.0,0.4470342838709678,0.39623356774193547,0.4192522258064516,0.43861256774193547,0.6164492322580645,0.2597957096774193
257.0,0.43259270000000005,0.38625916451612896,0.41187650322580643,0.4329837741935484,0.612447129032258,0.24834650322580643
258.0,0.4197529741935484,0.3797591096774193,0.41166841935483867,0.43257588387096774,0.6117665741935483,0.24306519354838707
259.0,0.40771417741935484,0.37499622903225804,0.41504415483870966,0.4347784451612903,0.6127467935483871,0.2408678322580645
260.0,0.39607584516129035,0.371101935483871,0.4202118,0.4382862322580645,0.6145574,0.2402124451612903
261.0,0.38463774516129035,0.367641935483871,0.42627539999999997,0.44244663225806447,0.6167832,0.2403280451612903
262.0,0.37319964516129034,0.36418193548387096,0.432339,0.44660703225806453,0.6190089999999999,0.24044364516129033
263.0,0.36176154516129033,0.360721935483871,0.4384026,0.4507674322580645,0.6212348,0.24055924516129032
264.0,0.3503234451612903,0.357261935483871,0.4444662,0.4549278322580645,0.6234606,0.24067484516129034
265.0,0.3388853451612903,0.35380193548387096,0.4505298,0.4590882322580645,0.6256864,0.24079044516129033
266.0,0.3274472451612903,0.350341935483871,0.45659340000000004,0.46324863225806445,0.6279121999999999,0.24090604516129036
267.0,0.3385624354838709,0.34861205161290326,0.45997354193548384,0.466026529032258,0.6271795483870968,0.23940502580645162
268.0,0.3609542709677419,0.3477472258064517,0.4620119548387096,0.46811317419354836,0.6249676709677419,0.23709569677419357
269.0,0.38898442903225805,0.3473149290322581,0.4633795032258064,0.4698541935483871,0.6220161806451612,0.2343822129032258
270.0,0.41983374838709675,0.3470988967741936,0.46441161935483866,0.4714224,0.6186948838709677,0.23146665161290325
271.0,0.45209264838709673,0.34699099677419354,0.46527601935483864,0.4729042,0.6151886838709677,0.22845005161290324
272.0,0.4843515483870967,0.3468830967741936,0.4661404193548387,0.474386,0.6116824838709677,0.22543345161290324
273.0,0.5166104483870968,0.34677519677419355,0.46700481935483873,0.4758678,0.6081762838709677,0.22241685161290323
274.0,0.5488693483870968,0.3466672967741936,0.4678692193548387,0.47734960000000004,0.6046700838709678,0.21940025161290322
275.0,0.5811282483870966,0.34655939677419356,0.46873361935483865,0.4788314,0.6011638838709678,0.21638365161290324
276.0,0.6133871483870967,0.34645149677419357,0.46959801935483864,0.4803132,0.5976576838709677,0.21336705161290323
277.0,0.6210735064516129,0.34145539032258065,0.4673385483870967,0.48309420000000003,0.5991652129032259,0.21348185806451614
278.0,0.616473593548387,0.33401518064516134,0.46351714193548377,0.48652480000000004,0.603179606451613,0.21516236774193548
279.0,0.6057305451612902,0.3253529193548387,0.4589147677419354,0.49028020000000005,0.6084474322580646,0.21762572903225808
280.0,0.591915929032258,0.31607963225806457,0.4539219096774193,0.494198,0.6143419741935483,0.22048051612903224
281.0,0.576565529032258,0.30650083225806457,0.44873380967741927,0.498197,0.6205498741935485,0.22353101612903226
282.0,0.561215129032258,0.29692203225806457,0.44354570967741935,0.502196,0.6267577741935484,0.22658151612903227
283.0,0.545864729032258,0.2873432322580645,0.4383576096774193,0.506195,0.6329656741935483,0.22963201612903225
284.0,0.530514329032258,0.2777644322580645,0.4331695096774193,0.5101939999999999,0.6391735741935484,0.23268251612903224
285.0,0.515163929032258,0.2681856322580645,0.42798140967741927,0.5141929999999999,0.6453814741935484,0.23573301612903225
286.0,0.499813529032258,0.2586068322580645,0.42279330967741935,0.518192,0.6515893741935483,0.23878351612903226
287.0,0.494619,0.25525007096774194,0.42519798387096774,0.523549193548387,0.6509898419354839,0.2350917193548387
288.0,0.4945024064516129,0.25500432903225806,0.43139904516129024,0.5295854838709677,0.6469865935483872,0.2280287741935484
289.0,0.4969247806451613,0.2563140967741936,0.4394983,0.5359613225806451,0.6412814870967742,0.21928025483870967
290.0,0.5006166387096774,0.25840161935483874,0.4485466516129032,0.542506935483871,0.6347254516129033,0.20968894838709679
291.0,0.5049432387096775,0.2608780193548387,0.4580695516129032,0.549137435483871,0.6277439516129033,0.19967624838709677
292.0,0.5092698387096775,0.26335441935483866,0.4675924516129032,0.5557679354838709,0.6207624516129033,0.18966354838709676
293.0,0.5135964387096774,0.26583081935483865,0.4771153516129032,0.5623984354838709,0.6137809516129034,0.17965084838709677
294.0,0.5179230387096774,0.2683072193548387,0.4866382516129032,0.5690289354838709,0.6067994516129033,0.1696381483870968
295.0,0.5222496387096774,0.2707836193548387,0.4961611516129032,0.575659435483871,0.5998179516129032,0.1596254483870968
296.0,0.5265762387096775,0.2732600193548387,0.5056840516129032,0.582289935483871,0.5928364516129032,0.14961274838709676
297.0,0.5397468129032259,0.2697044709677419,0.5055222548387097,0.5776035322580646,0.5884098935483872,0.14724995806451613
298.0,0.5573393741935484,0.2631329483870968,0.5005181096774194,0.5672586774193549,0.5852608064516129,0.14871212258064517
299.0,0.5771429290322581,0.2550534387096774,0.4930927903225806,0.5540845967741935,0.5827504548387097,0.15208676451612904
300.0,0.5980519806451612,0.24621993548387094,0.4844568838709677,0.5394959032258064,0.580559470967742,0.15641764516129034
301.0,0.6195137806451613,0.23700943548387096,0.4752156838709677,0.5241999032258065,0.578528170967742,0.16122664516129032
302.0,0.6409755806451611,0.22779893548387095,0.4659744838709677,0.5089039032258065,0.576496870967742,0.16603564516129032
303.0,0.6624373806451612,0.21858843548387097,0.4567332838709677,0.4936079032258064,0.574465570967742,0.17084464516129033
