time,emg_right_hand,emg_left_hand
0.0,24.428571428571427,14.785714285714286
1.0,26.476190476190474,13.801587301587302
2.0,21.346938775510203,13.928571428571427
3.0,14.038095238095238,10.779365079365078
4.0,14.436251920122888,13.031490015360983
5.0,10.751732793825633,10.494417593945524
6.0,9.422640590461203,14.297055187141732
7.0,8.663967110780643,14.412825123997429
8.0,10.024604663629052,12.401937270702021
9.0,15.120597262690103,12.629540063922438
10.0,15.355735295389112,10.777791275076876
11.0,12.46657732511391,8.8542182181836
12.0,7.95901240118392,7.457547487917275
13.0,6.970064815855532,6.885736765201754
14.0,8.426199842643587,7.402084972462627
15.0,7.114044059795436,6.486487018095987
16.0,7.222344610542879,5.177517702596381
17.0,8.311565696302123,5.4324547600314705
18.0,7.989059982765726,5.6231248360870705
19.0,7.639537671874415,22.49084429208347
20.0,10.43105915851785,15.700740886441121
21.0,9.414034693342323,13.753212693417256
22.0,9.618897755797834,18.856936795174402
23.0,10.056760705855908,19.964182683301487
24.0,11.244816604848076,14.240463077441833
25.0,8.174021205649845,9.597497283728597
26.0,9.15207747930014,7.954216777190813
27.0,8.104531490015361,9.35099846390169
28.0,7.937948184781387,10.033325840170843
29.0,7.7580869956165,9.961017758795098
30.0,7.997316511183545,9.115805889625715
31.0,6.023562249447379,6.726892960173842
32.0,5.892639841144955,5.500009366453112
33.0,5.348680266756585,5.152837098647485
34.0,9.72393690757184,5.307466936420516
35.0,9.879577385635606,7.4374620658648976
36.0,10.70860589711888,7.924184181933985
37.0,9.805129069723876,6.482941815593271
38.0,8.373492937694355,5.590408752013786
39.0,7.562867633284627,7.43816267655764
40.0,7.688115844292084,6.342737252257315
41.0,8.798358997414859,7.732044509385186
42.0,8.66314488029673,6.252332246824772
43.0,6.749668427559852,9.14056423513544
44.0,6.410711475778353,7.48043160615938
45.0,7.056213704994192,8.386707129744108
46.0,5.690165224232887,8.175688434303698
47.0,4.759008654602675,10.294610542879623
48.0,4.390165224232888,9.765794649881983
49.0,5.132025776478963,10.599928814956353
50.0,6.635249709639954,7.1004364767149974
51.0,7.60633453223933,5.31796017384137
52.0,6.95195758870031,5.7658349256303625
53.0,5.42483796036117,6.194483159117305
54.0,5.288532651455546,6.1930173092053495
55.0,6.025413060582219,8.184323367427224
56.0,8.755251770259637,10.45302911093627
57.0,6.573996852871755,7.807159716758457
58.0,5.959539732494099,8.02765538945712
59.0,8.561132966168373,7.108890637293469
60.0,6.852163650668764,7.472226593233674
61.0,8.946255724343843,8.551199338296112
62.0,9.638175069095603,7.464742076701164
63.0,8.028889023381549,9.992172527184328
64.0,5.68257983820533,11.115519780507979
65.0,6.989755694082994,10.53997861566705
66.0,5.444090056285178,9.456285178236397
67.0,6.093878230345578,7.903280275978938
68.0,4.750413060582218,8.242210857592447
69.0,7.698190401258851,8.417073170731708
70.0,8.964148964070286,9.419058858791352
71.0,12.220469446629949,7.9852965419055115
72.0,11.77548049904462,7.036158255591772
73.0,13.308865347870068,7.796324603799032
74.0,9.76739350342812,7.837716833389532
75.0,9.684387995953692,7.376231688584166
76.0,9.935821063279757,7.760893184968716
77.0,9.019677044696714,8.646652429657937
78.0,8.624551346895956,9.79814918886516
79.0,7.474257240268256,9.881255854033194
80.0,5.362627852084973,9.175727773406766
81.0,6.075806451612904,9.27016129032258
82.0,5.357258064516129,8.495967741935484
83.0,4.8137096774193555,7.9564516129032254
84.0,6.5321812596006135,7.750960061443932
85.0,4.952380952380952,9.00410906298003
86.0,6.003609831029186,8.72584485407066
87.0,9.286482334869431,8.534293394777265
88.0,8.365821812596005,8.236098310291858
89.0,7.953245476003147,6.500275373721479
90.0,7.812037765538945,7.881845003933909
91.0,5.516935483870967,9.73341856805665
92.0,6.922196620583717,9.402173953767187
93.0,6.955453149001536,9.316735978419691
94.0,6.150425236971264,9.174890412498595
95.0,7.019744483159117,7.849050241654489
96.0,7.288235734891911,7.403754074407103
97.0,9.248151062155781,6.035884755160915
98.0,8.65279307631786,7.351219512195122
99.0,10.8713217938631,7.506215578284815
100.0,11.174842643587727,7.6244689221085755
101.0,8.577025963808024,7.952635719905586
102.0,7.3066089693155,7.73831628638867
103.0,8.091620771046419,8.154917387883556
104.0,9.335326514555469,7.746813532651455
105.0,10.029421614315398,7.997234158445802
106.0,8.769628195041255,6.53441566301519
107.0,9.033279872500959,8.914965502632693
108.0,6.463591155762674,9.89588755068692
109.0,8.565397728418972,10.482237170120726
110.0,6.954419092578022,10.068238357498782
111.0,9.673268142819676,11.820151923869469
112.0,7.397924393990483,12.10402757483796
113.0,7.478820576224194,11.103548012438651
114.0,6.576021880034467,10.183934659623093
115.0,10.575973174478289,14.693068824697463
116.0,8.942682926829269,11.814791502753737
117.0,8.876986624704957,12.404976396538158
118.0,12.249095200629426,12.736270653029111
119.0,11.607238394964595,10.988906372934697
120.0,8.405184692045431,10.5361425487704
121.0,9.646337428634833,8.885695192559865
122.0,7.4054267788335455,9.330347596279932
123.0,6.835522201375859,8.055889769815812
124.0,6.017682422481792,7.001430329439771
125.0,7.528633247161964,7.782175639728747
126.0,7.102632909969652,7.63813738713424
127.0,6.827368775991907,8.405663894196547
128.0,8.38120995841295,8.697727698475141
129.0,7.298995916226443,8.552358472893484
130.0,8.382908096362069,6.472646210333071
131.0,8.597826982878123,7.747810123262523
132.0,7.7035555056011376,7.76430632048256
133.0,6.325499231950844,7.828494623655914
134.0,7.282258064516129,7.9346774193548395
135.0,12.753855232100708,8.224803304484658
136.0,12.441935483870967,7.807140047206924
137.0,8.553461841070023,7.42802911093627
138.0,6.96866640440598,6.347482297403619
139.0,6.913768686073958,7.095515342250197
140.0,7.3209583754823715,8.192769098197894
141.0,7.280856843130643,8.760035217863699
142.0,7.4036070210932525,8.634148214754038
143.0,7.895204376006894,8.007337679367577
144.0,8.432318009816044,7.870911543216814
145.0,12.080064441197408,8.997714585440786
146.0,12.311003709115433,10.284852572028026
147.0,11.02906597729572,9.14785508223746
148.0,8.808406175518686,12.59486804829055
149.0,13.654126282843826,14.198432488046965
150.0,15.603223644962434,13.507556133873994
151.0,12.814822267949726,13.523132905646673
152.0,11.967491779136154,15.19987290443624
153.0,24.276632572777338,13.79720692368214
154.0,17.743385410812632,12.755323891948596
155.0,12.479481847813869,12.756104117492786
156.0,9.418773181971451,11.876842381327037
157.0,11.433983365179273,10.741646997115131
158.0,7.609340227042823,11.627117755048516
159.0,8.20255704169945,10.091620771046419
160.0,8.470043273013376,10.3110346184107
161.0,7.534580008242479,9.536028061893521
162.0,9.106095687684988,15.804630774418342
163.0,9.440612940691619,11.473163238544828
164.0,10.242242703533027,9.000921658986176
165.0,7.624386497321194,9.239013150500167
166.0,6.518721666479338,6.980259263422126
167.0,8.62126559514443,5.888670338316286
168.0,6.516777190813382,7.961923494810984
169.0,9.975362481735417,7.401468659847888
170.0,11.227649769585254,8.773118279569893
171.0,10.56132685174778,9.708805402570155
172.0,8.556932111947848,9.577327563598217
173.0,8.585478251095875,9.827235772357723
174.0,7.741817466561762,9.500177025963808
175.0,7.015263571990558,8.341620771046419
176.0,8.234618410700236,8.080723839496459
177.0,6.357907159716758,9.01266719118804
178.0,7.945279307631786,9.20837922895358
179.0,8.903284815106215,7.734834775767113
180.0,7.910955003559253,7.915977295717657
181.0,6.912204488404331,7.015423738338766
182.0,9.123077067176201,7.300424300325952
183.0,8.046392978906747,8.58395526581994
184.0,7.377730321082012,7.6388108351129596
185.0,7.4226593233674265,9.444059795436665
186.0,5.5625491738788355,9.964437450826122
187.0,6.315499606608968,9.843745082612116
188.0,7.550747442958301,10.075295043273012
189.0,7.278520849724626,9.786764913554842
190.0,5.699744295830055,9.655479230970968
191.0,5.259031134090143,8.593215805961675
192.0,4.905282679554906,6.910297910848658
193.0,6.2646004271102615,5.152237861797263
194.0,5.8769894346408895,5.584057360158855
195.0,8.498613764939492,9.003184594057924
196.0,7.821887527631036,10.166722865385335
197.0,8.179236446742348,8.77336930051328
198.0,8.15656963021243,10.104192424412723
199.0,8.95365479000412,10.262110823873215
200.0,12.104323554756284,8.925986287512645
201.0,10.872803566745343,10.651905136562887
202.0,10.167041324791128,11.807013600089917
203.0,8.63164189600067,10.963710037667552
204.0,6.560675018660858,10.95466607874161
205.0,5.771965773539337,9.946073438756365
206.0,5.866313335235443,9.884917128504854
207.0,6.406889386511731,10.103979301579617
208.0,6.288473642800945,10.462411487018096
209.0,6.216365066876476,9.989693154996065
210.0,7.969984264358772,9.420928402832416
211.0,8.351553894571204,8.744295830055075
212.0,7.4431156569630215,10.204405979543665
213.0,7.9183320220298965,11.482848151062155
214.0,9.060818253343822,11.135601888276947
215.0,9.807450076804916,10.107027649769584
216.0,10.24500768049155,9.702803379416283
217.0,8.28137480798771,10.521966205837174
218.0,9.855875576036865,10.696697388632872
219.0,10.644273350567607,10.726495822561912
220.0,12.79362519201229,9.786564759656812
221.0,11.235765801206398,8.65892435652467
222.0,10.251350642538682,8.76575250084298
223.0,9.200944138473643,9.380802517702595
224.0,9.389221085759244,8.683713611329662
225.0,7.678481510621558,11.52557041699449
226.0,7.06331628638867,8.892053501180174
227.0,5.6804484657749805,8.508123524783635
228.0,5.140339440260762,9.732921209396425
229.0,4.569618972687422,10.207215915477127
230.0,4.725044310528181,8.805175469691598
231.0,6.437522155264091,10.455813541297413
232.0,7.414492784949118,9.477257675448076
233.0,8.362392321814035,9.502453722516666
234.0,7.525344469325586,10.308032526089175
235.0,8.520477070487134,11.608831890028256
236.0,8.19568306710824,11.45314725894017
237.0,8.290134815933948,10.59120964910217
238.0,12.091631792965662,11.926435441613016
239.0,12.971464991683462,12.042289317974092
240.0,12.631343898692442,11.77688359372073
241.0,16.14989696901577,13.09945674571953
242.0,12.521990558615265,13.971715184893784
243.0,9.440302911093626,13.393174665617623
244.0,8.926199842643587,15.546184107002361
245.0,8.760424862313139,17.49396144767899
246.0,8.500078678206137,17.428599527930764
247.0,9.513296616837136,17.006510621557826
248.0,10.701003147128244,15.006077891424074
249.0,8.472619984264359,15.428088119590871
250.0,7.5367296092315765,13.04499831403844
251.0,6.877727511146079,11.594096324603798
252.0,6.983523472331497,10.654040687872318
253.0,6.3134015211119845,10.008279944550598
254.0,7.011801730920535,8.64319433516916
255.0,7.187516391292945,7.25469259300888
256.0,10.05447529129669,7.281967704469672
257.0,8.4995129444382,7.867970476939792
258.0,6.776017845254666,8.730688535173194
259.0,8.890159460261742,7.804898799076612
260.0,8.745237086543144,6.964998573417141
261.0,9.026715429862557,6.308779680848917
262.0,7.278641893118682,8.307615646876071
263.0,9.996144767899292,7.818489378442171
264.0,8.598819826907945,8.25428796223446
265.0,6.303265145554681,7.0477576711250975
266.0,6.367525570416994,10.399567269866246
267.0,6.706746656176239,10.957041699449253
268.0,9.038492375707168,9.365310404256117
269.0,9.562519201228877,11.391545839421527
270.0,8.1428955453149,10.5046438874527
271.0,8.661721179423775,9.251731857180323
272.0,7.100726836761455,10.596568131579934
273.0,6.696676782436027,9.00719343598966
274.0,7.127252631973324,9.262054625154548
275.0,7.069386684650256,9.071349893222434
276.0,10.020216552395938,7.332921209396425
277.0,9.423247536622831,6.41602787456446
278.0,7.65517215540819,8.1757558727661
279.0,12.336712749615977,12.022811059907834
280.0,10.945775729646698,13.300115207373272
281.0,11.232584953729722,13.24302573901315
282.0,17.2584148214754,11.77898729908958
283.0,23.643646734854443,9.188571990558614
284.0,15.732710464201414,8.702753737214792
285.0,12.18245476003147,10.765853658536585
286.0,8.59870180959874,12.777498033044846
287.0,8.009815106215576,10.769158143194336
288.0,8.404484657749803,9.921675845790716
289.0,9.060844479412534,7.761567569592746
290.0,9.577235772357724,10.256865610130754
291.0,12.55696676782436,11.920010490427483
292.0,11.44749166385673,10.155932711400848
293.0,9.13279382563411,9.655385710539132
294.0,6.939515192386947,9.71655614251995
295.0,7.746390168970814,6.394470046082949
296.0,11.520801019070099,5.570806638941965
297.0,9.246498819826908,4.159520062942565
298.0,9.182926829268293,7.132179386309991
299.0,8.200865460267504,7.728304484657749
300.0,8.795712037765538,9.474547600314713
301.0,8.703722588714722,8.348542940144043
302.0,8.37968387500252,8.643223082975247
303.0,9.60799693356735,8.72874175391878
304.0,9.727137352550413,7.59656524959436
305.0,7.846147073487749,7.688844986641997
306.0,9.64705425049642,7.807716084073283
307.0,7.60203814019707,9.22614364392492
308.0,8.173991232999889,9.914203289498332
309.0,8.876831141583306,9.73622194747293
310.0,10.36629575512345,7.786160128882395
311.0,8.896601850811134,7.236589112434903
312.0,8.899363081188415,7.912078977932637
313.0,9.380763178599528,9.19897718332022
314.0,12.781254917387884,12.956687647521637
315.0,17.861543505013216,13.833968306804657
316.0,15.078077023946417,13.85808368133309
317.0,12.94863725312191,10.81784986584357
318.0,10.545522403114848,8.311363957312029
319.0,9.247348140975205,9.941362545139098
320.0,7.6915814319433515,12.079779701022815
321.0,7.489378442171518,10.729110936270652
322.0,7.599527930763179,10.689496459480722
323.0,6.1852871754524,10.611467348544451
324.0,6.648819826907946,9.925432730133753
325.0,7.862313139260424,10.042036641564572
326.0,10.877224532613988,9.992019781948972
327.0,9.076692518077254,9.407890300101158
328.0,7.9970402008167545,9.861301562324378
329.0,7.999385560675883,8.354568955827807
330.0,8.577112135176652,8.179127795886252
331.0,8.823502304147466,9.066138398711175
332.0,11.003804653253905,7.7576167996703
333.0,10.088133640552995,8.680145929339478
334.0,9.346594357648646,9.037191375369975
335.0,9.93877711588176,9.977653516166498
336.0,10.422659323367427,9.120987411487018
337.0,10.046813532651456,8.739122738001573
338.0,9.74299201978195,10.457022966543029
339.0,10.146082949308756,9.031029185867895
340.0,8.957384511633133,8.960833239668801
341.0,7.335891311678094,7.623689633209696
342.0,8.885579408789479,6.938398711176052
343.0,7.620977108388596,6.432332996141021
344.0,6.712927578584541,5.975411187291597
345.0,7.963072758607769,7.954267356037615
346.0,8.192049754598928,6.656775692180885
347.0,7.360304971713312,8.387789891723802
348.0,6.1567269866247045,8.121007081038552
349.0,7.725847664006594,6.723105166535536
350.0,6.547424225394328,6.739207972724888
351.0,7.872453261398973,8.280304222397064
352.0,10.21134464800869,8.863204825596643
353.0,9.51043422876625,7.1690832115694425
354.0,9.097306208085122,6.763036229440635
355.0,9.105301412461127,7.452943804163316
356.0,8.374013712487354,8.780741131409895
357.0,8.608141321044545,8.809163417227932
358.0,9.073421752650706,8.192365980465901
359.0,7.702071859428271,7.213828919572428
360.0,6.097692105953318,8.159154771271215
361.0,10.729684163201078,10.059945299913828
362.0,11.684350530141245,14.029972649956914
363.0,10.11990933273388,10.431194035442658
364.0,8.440523022741749,8.869821288074633
365.0,8.945517215540818,9.307924019332358
366.0,8.332081975197632,7.752309767337304
367.0,6.746105428796223,9.834343036978757
368.0,5.762287921886664,10.563452460206983
369.0,6.023885896427203,10.041806875264783
370.0,5.30741145819824,9.570653821656968
371.0,5.402899277486217,9.934117233409129
372.0,5.917736027413447,9.184839891291503
373.0,17.38310291858679,8.9931643625192
374.0,22.814958225619122,9.064855194634895
375.0,15.755021355513094,7.052012850773669
376.0,11.538968191525234,5.665591397849463
377.0,8.38208010190701,4.857718894009217
378.0,10.021685212243828,5.756682027649769
379.0,9.366310741448428,5.608238732156907
380.0,8.057101644749165,5.981210895058259
381.0,8.814546101682215,6.052255441909257
382.0,7.135306845003933,7.023055524334045
383.0,5.719669551534224,6.977253568618636
384.0,6.413060582218725,5.514836461728672
385.0,7.625806451612903,4.965207373271889
386.0,7.633870967741935,4.578225806451613
387.0,7.961290322580645,5.091129032258064
388.0,7.5831038552321,6.147482297403618
389.0,5.664811172305271,6.796754523996853
390.0,6.700798886400774,6.2773991809397
391.0,7.380415178841615,6.645288890233815
392.0,7.957949524904679,7.656918638665294
393.0,7.10281425891182,6.628537997538784
394.0,12.276033407976758,7.929139179729265
395.0,11.137130493424749,7.362359971525982
396.0,9.137670937769286,7.563312539807425
397.0,7.729525870143494,6.815655089730621
398.0,7.815166160878199,6.336053351316924
399.0,6.893421003334457,9.566138398711175
400.0,10.847862575399947,12.028844929002286
401.0,12.456726986624705,8.883162863886703
402.0,11.518843430369786,7.787608182533438
403.0,9.207946498819826,8.004012588512982
404.0,11.08273013375295,8.907120377655389
405.0,10.82765538945712,10.714044059795436
406.0,7.021469783822261,10.10525551684088
407.0,8.050290360046457,8.217979843392904
408.0,8.674712449889475,9.693726349705893
409.0,10.09300138623506,10.403314787756173
410.0,7.308990353994288,9.591059792554677
411.0,10.220931428917268,7.913041417014666
412.0,10.702200756233015,7.553163771712159
413.0,12.390350968203053,9.300549234400531
414.0,10.555736159984782,10.812659409826995
415.0,8.077348169795062,9.64991944850324
416.0,7.394234011464539,11.004477164587314
417.0,7.017384136975011,11.064066539282905
418.0,6.651807725450526,10.721569068225245
419.0,8.216072833539396,9.7948859166011
420.0,11.06774193548387,10.84059795436664
421.0,13.353304484657748,9.441148701809599
422.0,11.225354051927615,8.06573564122738
423.0,8.552596380802518,5.63286782061369
424.0,7.289547038327527,6.370600576973512
425.0,8.856732606496571,6.956582743246787
426.0,6.9031105990783415,8.675537634408602
427.0,6.881128470270879,8.520371098872278
428.0,5.42220786032745,9.427677868944588
429.0,7.232009853508673,10.112016222696788
430.0,9.23426529541793,9.847732381701697
431.0,7.855419429770334,9.855681690457457
432.0,8.221966205837173,9.30038215128695
433.0,8.224270353302611,8.579146528792478
434.0,9.154228016934548,10.9402420291484
435.0,12.125585403319471,11.585590648533213
436.0,17.102030935233138,12.991619185954354
437.0,15.239135058489897,11.567878829798577
438.0,10.409534184671871,10.968411708930985
439.0,9.662674252052694,10.167919465795155
440.0,9.247859549315097,9.288050999616697
441.0,10.318194335169157,8.56829268292683
442.0,10.937922895357985,9.370653029110937
443.0,8.57769472856019,9.177380015735642
444.0,7.589634146341464,10.164693154996066
445.0,11.120220298977184,7.6545239968528715
446.0,8.357457569967405,8.109117305458769
447.0,6.731874039938556,8.855184331797235
448.0,7.050883256528417,10.586175115207372
449.0,11.38630905548687,10.09910644037316
450.0,9.399891349143905,11.35984039563898
451.0,7.816698512607245,10.715934210033343
452.0,7.951744033569367,10.67882432280544
453.0,7.160818253343823,10.303697875688435
454.0,7.937844217151849,10.686388670338317
455.0,9.334382376081825,10.430527143981116
456.0,10.521243115656961,15.325806451612902
457.0,8.331589299763966,16.704681353265144
458.0,6.127084972462628,15.958792289535799
459.0,8.558300550747443,13.775767112509833
460.0,8.211487018095987,13.054681353265146
461.0,10.293863099921321,13.496656176239181
462.0,13.666286388670338,14.176553894571203
463.0,13.16862706530291,15.55521243115657
464.0,11.065853658536586,14.967781274586939
465.0,10.087608182533437,11.603874901652242
466.0,7.34972462627852,11.024940991345396
467.0,8.554209284028325,9.8661487018096
468.0,7.96036117043198,10.067962983777303
469.0,8.190251395601514,8.655539320370162
470.0,7.398036791427822,8.359634333670524
471.0,6.264321306807538,11.726237308456033
472.0,5.877885114043961,14.086254187790482
473.0,5.333719822766988,12.732220795892168
474.0,8.258520021532982,9.70757381258023
475.0,8.12469667481055,9.9622841525529
476.0,7.791150613021085,9.160175343035917
477.0,8.714263450947165,10.952773911113802
478.0,8.17404800811567,9.33633319211604
479.0,7.76609560122542,8.77933890132946
480.0,12.846633408553156,10.485678549093183
481.0,12.62330329135994,10.377594377043629
482.0,11.663605487799035,9.221111451756613
483.0,10.871357275389535,9.59514791050983
484.0,9.708505152250234,9.638181744397322
485.0,11.732997356128749,9.55817174935979
486.0,11.900340938893258,7.597785770484433
487.0,12.229740361919747,8.6556517178075
488.0,8.760818253343825,8.80068187778652
489.0,11.296879097823236,9.64445520385725
490.0,9.476212955677944,8.164792511448688
491.0,8.311119853134015,9.924646452419859
492.0,9.631366378179912,9.778871875567392
493.0,10.61712158808933,11.07055720309064
494.0,8.417162944582298,11.418157013455989
495.0,8.701323407775021,10.99335270027638
496.0,8.460262318326834,15.904126426943106
497.0,7.653026517149254,11.736878319687131
498.0,6.184412348731782,10.767529316998239
499.0,5.659141658236859,9.297877561724926
500.0,5.162635345247461,9.964261361507624
501.0,7.446852871754524,9.01931549960661
502.0,6.581805664830842,11.14655782848151
503.0,5.056628638867034,11.233359559402047
504.0,7.555782848151061,9.982553107789142
505.0,7.728796223446105,11.214870180959874
506.0,7.57918961447679,9.612249447379266
507.0,7.9264948859166005,7.943418193398524
508.0,9.469708890637293,7.679704769397924
509.0,9.517073170731706,8.280056948034918
510.0,8.581038552321008,8.63696002397812
511.0,6.850904799370575,9.816129032258065
512.0,7.107592446892211,8.768804091266718
513.0,6.541207710464201,9.049940991345398
514.0,8.058103855232101,9.336664044059795
515.0,8.56341463414634,10.060503540519276
516.0,9.661329661683713,9.9779307631786
517.0,8.337273800157355,8.890853658536585
518.0,7.9408143194335175,8.59260424862313
519.0,8.20936270653029,7.590715971675845
520.0,8.44063729346971,8.141542092840282
521.0,7.352812745869393,9.071951219512194
522.0,8.51038552321007,10.628894571203777
523.0,12.83468584916264,8.092615488366866
524.0,15.180128133078565,8.294144093514667
525.0,11.456161252856766,7.581881533101045
526.0,11.78153684762654,6.898467648270953
527.0,9.645843168109101,8.158124461428946
528.0,10.228451537971601,6.833052339739987
529.0,8.409299302847689,5.913994345544305
530.0,9.316279039607128,4.88458512376687
531.0,11.175420625794347,6.431408743367831
532.0,9.065847606366882,6.373257479473057
533.0,8.549052835441504,8.02675462486635
534.0,15.66876475216365,10.162391817466562
535.0,12.377336930051328,7.487512644711701
536.0,7.6693136263159865,8.75138810835113
537.0,7.489888913866096,9.446425761492637
538.0,7.394541231126597,9.949825783972125
539.0,6.610724588812708,10.407249634708329
540.0,8.37118410700236,9.332887490165223
541.0,6.18405152413807,11.096530593717848
542.0,7.518737013052512,9.35195333777159
543.0,6.443066663208283,8.4648207549073
544.0,8.091714291478258,7.065219189412737
545.0,7.042670678390584,7.064415259537211
546.0,6.154006968641115,9.248832939942302
547.0,7.07692480611442,8.926304746918436
548.0,7.231549960660897,12.533044846577496
549.0,10.963139260424862,10.616247049567269
550.0,8.441837136113296,10.3927025963808
551.0,7.555999213217939,10.830625491738788
552.0,6.796951219512195,10.206038552321008
553.0,8.995515342250197,8.220692368214005
554.0,6.753619197482298,8.113414634146341
555.0,4.790892997639654,10.978107789142406
556.0,5.140204563335956,10.06848937844217
557.0,6.588158929976396,9.172895357985837
558.0,7.283221872541305,9.048760818253342
559.0,6.247659323367428,10.317525570416993
560.0,8.606606159379565,11.868267393503427
561.0,8.675019669551533,11.806848750515154
562.0,10.18841463414634,14.07769660185081
563.0,7.1022142295155675,12.131129406916187
564.0,6.425536697763291,8.020531265220486
565.0,6.23743958637743,6.0470195946199095
566.0,6.476093065078116,5.157918399460492
567.0,8.000730871541258,4.225028315508252
568.0,8.238816599084105,4.516976336016461
569.0,7.52656801630051,6.4087635417297095
570.0,13.314975589582197,9.908158324759427
571.0,12.096600698016903,13.82343400108939
572.0,9.871597167584579,12.680645161290322
573.0,8.13151998801094,14.677889550784908
574.0,10.317687610055824,11.47812652204863
575.0,7.708843805027912,7.69511164812109
576.0,9.564905773481698,9.219733243415384
577.0,9.65578097486044,10.734571578434679
578.0,7.077871754523996,10.29069630212431
579.0,5.8704366640440595,9.1786782061369
580.0,7.8437450826121164,10.249370574350905
581.0,8.345397324940992,10.159716758457908
582.0,6.194335169158143,11.139260424862313
583.0,7.945712037765539,10.279307631785995
584.0,9.853845865647596,8.007905286426137
585.0,8.773893821887526,6.367839346596231
586.0,10.28167547113259,6.646862238207635
587.0,7.859877861451425,6.869851260724589
588.0,7.06172492600502,8.053729721629015
589.0,6.680566483084186,8.704209284028325
590.0,7.989378442171519,8.362962234461055
591.0,10.064044059795437,8.739142407553107
592.0,7.857367652017535,8.443111910381775
593.0,10.909879734742047,6.666009141658236
594.0,9.770873212808695,7.326175706014416
595.0,12.349146283823703,7.88365236913624
596.0,10.292372681082359,7.371895308992084
597.0,9.32614025759187,8.509833983221078
598.0,6.518803803068162,10.606598738266715
599.0,6.192868382600876,7.855206811284702
600.0,6.6133696751714055,8.20461953467461
601.0,5.463001573564123,8.182533438237607
602.0,5.405271439811173,7.259795436664044
603.0,9.070456333595594,10.440676632572778
604.0,8.968273013375295,9.484933123524783
605.0,6.328088119590873,9.623918174665619
606.0,6.679543666404406,8.332572777340676
607.0,6.273288749016523,8.594295830055074
608.0,6.935621557828481,7.097383949645948
609.0,6.73273013375295,6.638611329661684
610.0,7.483262148289685,8.409762654078154
611.0,7.474695590273875,9.923026488329398
612.0,7.036482334869431,9.052150537634407
613.0,5.550395840718421,9.262158808933002
614.0,8.43428525316802,11.302892937117957
615.0,6.465803223789061,10.334045471968366
616.0,9.04192993604874,9.831342169501099
617.0,9.834271419637272,9.944703342815066
618.0,11.169158143194334,9.340676632572777
619.0,11.560188827694729,9.0786782061369
620.0,13.712037765538945,7.749016522423288
621.0,11.130615909136758,11.266477032015977
622.0,8.673372470697412,9.794528838588633
623.0,8.280824708991506,9.464140894510681
624.0,8.643559482741228,7.621527567632995
625.0,7.710292723274627,8.247663862494704
626.0,5.935129819040126,7.965519276160503
627.0,6.4906372934697085,7.800472069236822
628.0,9.297152598254094,8.127915776853621
629.0,7.727647896294631,7.3368925855157165
630.0,9.892049754598927,6.700704357273988
631.0,12.10247649020269,8.422932823798284
632.0,12.760915664456183,9.828303548012437
633.0,10.39185680566483,10.203088119590873
634.0,7.575059008654602,10.78701809598741
635.0,7.258851298190401,10.077950432730132
636.0,7.620771046420141,9.660110149488592
637.0,7.984264358772619,9.450668764752162
638.0,7.347757671125098,8.59669551534225
639.0,7.989771833202202,8.43524783634933
640.0,7.209441384736428,7.668135326514555
641.0,8.956805664830842,7.839417781274587
642.0,8.027942002922334,6.6207073545389825
643.0,6.292098460155108,7.3002041886778315
644.0,6.531336405529954,7.437749615975422
645.0,7.52415514592934,9.81221198156682
646.0,6.825954441572065,10.516629200854219
647.0,7.069482006323076,12.103877639538535
648.0,8.169821648322829,11.432987206866041
649.0,10.369794773807362,10.578964099105718
650.0,8.422290141015553,11.503102745667654
651.0,10.205281670859957,11.311028350092078
652.0,9.965419991757521,11.296870668015435
653.0,15.737184818852796,12.79018395713911
654.0,10.605769735116706,10.19629837773032
655.0,8.78518227117755,8.699644074781762
656.0,8.756953654790003,11.254353527406241
657.0,7.862203047411544,11.227404224414451
658.0,5.95171521371364,9.759335471766628
659.0,4.776548851096451,10.974137781966263
660.0,6.043899917287014,10.116651896490605
661.0,5.5892886683209255,9.869213045019496
662.0,6.545587463939155,10.645302723764564
663.0,5.892945187516391,10.49831029185868
664.0,7.733910306845004,12.557592446892212
665.0,9.362116443745082,13.07234461054288
666.0,8.170574350904799,11.772462627852084
667.0,8.848859166011014,12.814634146341461
668.0,9.527340676632573,11.480015735641226
669.0,7.406864673485445,9.634579071597166
670.0,9.7602871754524,9.206805664830842
671.0,8.541107489415907,10.431782248698063
672.0,6.50973549136413,8.329581132216852
673.0,7.108506612715896,9.376375931962084
674.0,8.163694691094376,9.423671836948785
675.0,7.012537309704894,9.72917462815181
676.0,6.9625666579246435,9.70944138473643
677.0,9.323140134627153,8.464083398898504
678.0,8.329626715621995,8.735031471282454
679.0,7.063200454585191,7.841306058221872
680.0,6.341876475216365,8.668882769472855
681.0,6.848387096774194,7.462785208497246
682.0,9.484461054287962,7.073406766325728
683.0,11.00605822187254,8.980035405192762
684.0,10.384826345959311,9.550290360046457
685.0,10.690839608856919,9.833367052564537
686.0,8.975088981304559,10.3070960248773
687.0,7.598066764077778,8.781274586939418
688.0,5.613746206586489,7.6022816679779694
689.0,5.106103180847477,7.340489303510546
690.0,6.468708553444981,7.249316248922858
691.0,5.839807425724027,8.291708815705668
692.0,4.674665617623918,8.442014162077104
693.0,5.435680566483084,8.115184893784422
694.0,7.2371351766513055,8.144700460829492
695.0,7.503648233486944,7.955414746543779
696.0,8.118356374807988,7.994239631336405
697.0,9.665944513131766,8.25260762054625
698.0,10.07171143831254,9.60319208722041
699.0,11.046076680990137,9.050739373398695
700.0,9.686421597023486,8.025561698988135
701.0,8.077819374436212,6.702365821956695
702.0,7.384464368571371,6.065502344495263
703.0,7.777354510163322,5.045096157448636
704.0,7.548454535236596,4.110284365516466
705.0,7.046654302948559,3.4128226743096928
706.0,5.224349968154059,4.383268704806863
707.0,8.863384661496383,3.470263384661496
708.0,8.466561762391816,4.028065640103406
709.0,7.893548387096773,3.805299539170507
710.0,8.40806451612903,5.805069124423963
711.0,7.244354838709677,7.23189964157706
712.0,6.571774193548387,5.276433691756273
713.0,7.284677419354838,5.598258151936358
714.0,8.45889063729347,6.7697919398548825
715.0,8.53831628638867,7.184089518314538
716.0,8.365932336742722,7.505664830841857
717.0,8.510385523210068,7.880251770259639
718.0,9.262873253156494,9.240095912479863
719.0,7.44811640627927,10.448529466861489
720.0,9.262364654752538,8.856522797946873
721.0,7.351132404181184,11.588898879772206
722.0,6.759919073845117,9.654362893859354
723.0,10.604997939380315,6.759977145854408
724.0,8.784796373309355,6.492105016672286
725.0,6.640785283428871,6.406133153497434
726.0,5.321621520362669,4.601146453860852
727.0,5.10203814019707,6.085545689558279
728.0,7.520220298977183,8.16420141620771
729.0,10.59032258064516,10.714516129032258
730.0,8.703225806451613,8.519354838709678
731.0,6.401160503540519,8.23719512195122
732.0,8.86308025177026,6.95125885129819
733.0,10.514201416207712,8.38450039339103
734.0,7.960700236034619,9.62142014162077
735.0,8.581156569630213,11.263532651455547
736.0,7.198374920385149,9.05734048930351
737.0,8.482732007043573,7.864902963545765
738.0,7.847935633734218,6.933700498295305
739.0,8.087618485631861,9.723341201153946
740.0,6.931962084597805,8.662976284140722
741.0,6.714982578397213,7.885021168184032
742.0,8.058439174253493,6.667783147877561
743.0,9.510415495860027,6.58998913491439
744.0,9.744822224719943,5.1713911056161255
745.0,9.850727773406767,7.093076317859953
746.0,9.54162077104642,6.2770259638080255
747.0,6.296380802517703,7.798387096774193
748.0,6.198996852871755,7.562096774193548
749.0,6.0865460267505895,8.109520062942565
750.0,7.013768686073957,7.170416994492525
751.0,8.159362706530292,6.73501180173092
752.0,10.169197482297403,10.096538158929976
753.0,9.590243902439024,9.885365853658534
754.0,13.126881720430108,10.765450901052787
755.0,13.672803566745344,9.007037016222696
756.0,11.233252781836573,9.268668277696602
757.0,10.782601813345323,11.903285751751525
758.0,8.205649844516877,12.97225656588363
759.0,9.806339215465886,15.993031358885018
760.0,9.98932224345285,15.533887827357535
761.0,8.891281705443783,14.195515342250197
762.0,9.065302911093628,12.438080251770259
763.0,7.688040912667192,11.15609756097561
764.0,10.732297403619198,10.814083398898505
765.0,9.974331235247837,10.22592446892211
766.0,7.918027900502331,9.287796808489176
767.0,7.422320401864068,16.23996449393774
768.0,6.866193732834173,17.666833245432773
769.0,8.579753042656268,16.105485859537787
770.0,6.863263618102328,11.41725905880115
771.0,6.332164399985014,7.296365816192724
772.0,6.6786707129744105,4.690275748379603
773.0,7.1400078678206125,4.14404012588513
774.0,5.660326514555468,4.7683910306845
775.0,6.194335169158142,5.861841070023603
776.0,7.021973698999663,6.674260986849499
777.0,8.804756284890038,4.902901727173953
778.0,7.78003353190214,5.142638904499644
779.0,19.995691431568694,8.698512607245888
780.0,13.619088831441308,10.043591472781088
781.0,12.748484507886552,8.890228916114046
782.0,9.15458019557154,10.834131355138435
783.0,11.804332921209395,10.971466037241017
784.0,12.970852534562212,8.336559139784946
785.0,11.439861751152073,8.32231182795699
786.0,10.298463901689708,8.829185867895546
787.0,10.980261136712748,12.631182795698924
788.0,11.854416282642088,23.610291858678956
789.0,11.690514592933948,19.232565284178186
790.0,10.151305683563749,12.100153609831029
791.0,8.312961297815743,9.38732531564947
792.0,8.981608969315499,8.320456333595594
793.0,9.546754523996853,7.99506294256491
794.0,9.071284328050654,8.591943913678769
795.0,8.635757371398597,8.797834476040613
796.0,7.22280918661721,8.836798920984602
797.0,6.136188228241728,8.803529279532427
798.0,5.60043085684313,8.703574238507361
799.0,9.008433554381627,8.626671911880408
800.0,9.455599265670076,10.441062530440972
801.0,8.025418680454086,8.543879959536923
802.0,7.993433179723502,8.414976958525347
803.0,9.202764976958525,6.0558755760368665
804.0,8.041705069124424,4.876728110599078
805.0,7.009109812296279,4.017376643812521
806.0,7.408489681050656,3.8458028203110812
807.0,8.235293227622103,3.1696756037039275
808.0,10.649412939538825,7.0490982267142765
809.0,10.519752552718721,8.611453875261901
810.0,7.459531590884857,8.772532227803667
811.0,9.231520924656252,8.36638473642801
812.0,10.563036229440636,8.218725413060582
813.0,11.21542842156532,6.0263571990558615
814.0,12.503971376119292,6.956127533625566
815.0,10.985088606646435,7.281443183095425
816.0,8.86508560938144,7.733797909407666
817.0,10.276880999933713,8.39783562883484
818.0,8.507755999573465,9.036840709775408
819.0,8.917528668551483,10.621488804927042
820.0,9.740868788960842,9.11005315822389
821.0,10.759547297706227,9.623171740402267
822.0,11.410542879622344,10.44665617623918
823.0,9.911841070023602,10.57128245476003
824.0,9.435542879622343,8.574783634933123
825.0,11.786723052714397,7.648682140047207
826.0,12.088237608182531,7.7656963021243115
827.0,11.109364579820912,9.133846614963845
828.0,9.264910456708254,9.001463039976022
829.0,7.911772694915888,8.760074556966767
830.0,6.103870218425686,8.709875988160803
831.0,4.813776179236446,8.187982840657899
832.0,6.724036191974823,8.909303697875687
833.0,5.583320220298977,9.547521636506687
834.0,6.826593233674272,9.256608969315499
835.0,6.2552321007081035,12.192820613690007
836.0,7.272777340676632,11.01778127458694
837.0,6.379110936270653,9.608025177025965
838.0,7.722836349331235,9.324232887490165
839.0,5.796498819826908,11.046793863099921
840.0,7.087214791502754,11.413276947285603
841.0,6.093509047993706,9.602478363493312
842.0,7.6276357199055855,9.75214398111723
843.0,5.798898505114083,13.684539732494098
844.0,5.234933123524783,12.28985051140834
845.0,6.334830236639835,10.069142004075127
846.0,7.341687344913151,8.353060380479734
847.0,8.505521091811413,9.127336641852771
848.0,9.410461175331356,8.412861869313481
849.0,8.320553168310838,7.874979321753516
850.0,9.766503690382525,7.655261136712749
851.0,6.866316361320294,7.84900153609831
852.0,6.91622269678918,7.842242703533026
853.0,7.68195084485407,8.38563748079877
854.0,8.026728110599079,8.238556067588325
855.0,8.144086021505377,7.921658986175115
856.0,9.799462365591397,6.451152073732718
857.0,7.686175115207372,5.224116743471582
858.0,6.622119815668203,10.210445468509985
859.0,5.602457757296467,9.658909370199693
860.0,6.989132104454685,8.745583717357912
861.0,8.76973886328725,12.635023041474653
862.0,14.717528380352928,13.602766850249147
863.0,15.941120602450265,14.993751639129293
864.0,16.079085646847254,11.921933423251282
865.0,13.06575250084298,13.447660260012738
866.0,12.420741073770184,15.96230939267918
867.0,11.820126634446067,16.279832153160243
868.0,9.80581469409164,16.071466037241017
869.0,6.837548237233524,10.460932524071785
870.0,8.289741860552246,7.482885616874602
871.0,7.127852084972463,8.051987561350268
872.0,7.1719905586152635,7.372383949645949
873.0,6.423524783634933,8.875255704169945
874.0,7.591853059083586,9.162291596418267
875.0,6.294844704207411,13.378224869806301
876.0,8.80312652204863,10.325776478962947
877.0,8.67011164812109,7.798372110449215
878.0,7.918159679292645,8.172769847514143
879.0,9.258300550747443,8.468095987411488
880.0,7.062273800157357,6.150255704169945
881.0,4.809362706530291,7.421498819826908
882.0,5.622423288749016,7.98479440142449
883.0,4.799567269866246,7.956755973332229
884.0,6.80126728110599,7.707724957555179
885.0,5.953003821512869,7.78846121992629
886.0,7.3246512076960535,8.479280237754708
887.0,7.557486894170608,7.484037402408763
888.0,6.255897262978301,7.667294074925861
889.0,6.0818656821803945,9.012443260909034
890.0,4.726456051161008,9.85209102463233
891.0,5.876593233674272,10.455822187254132
892.0,5.1925255704169935,7.753265145554681
893.0,7.613571990558615,6.588670338316287
894.0,9.903560188827694,5.851298190401259
895.0,8.083634933123525,8.80629425649095
896.0,6.7787325315649465,9.63279382563411
897.0,5.960176651305684,12.540629800307219
898.0,5.758779392650361,12.798644097837647
899.0,6.47938969632518,9.733596242467211
900.0,7.508312078689734,7.6359857687552415
901.0,6.503772014767295,5.894183360568097
902.0,5.699515826423773,6.630756117734874
903.0,7.226868607395751,9.591679779701021
904.0,7.40991345397325,7.508811959087332
905.0,9.749709639953542,6.844754786257541
906.0,11.672061743658912,5.8195646472593765
907.0,8.724701210145742,8.941883031733543
908.0,9.056685774231013,9.417046944662996
909.0,8.824566333220936,9.391450301599791
910.0,6.593312352478363,9.886585365853659
911.0,6.513729346970889,10.079091266719118
912.0,7.399027618067743,9.49236821400472
913.0,7.12264520163812,9.14012588512982
914.0,7.904752970606629,9.116483084185681
915.0,7.025311182392221,10.863414634146341
916.0,11.827112711573765,11.89036191974823
917.0,12.945578097486045,13.369912142669815
918.0,13.297366153385036,12.862050878573303
919.0,22.92153909557529,18.41332284290585
920.0,66.33016372560039,81.4818777865198
921.0,90.3341613277884,53.02433779176502
922.0,80.29173878835562,31.311014948859167
923.0,57.047390506163126,18.62853208946836
924.0,35.60166535536323,12.334132291783748
925.0,21.47663912929452,5.037630662020906
926.0,12.292105953317595,4.520310216927054
927.0,8.731733543141882,4.309250309092953
928.0,6.308339889850512,3.745869394177813
929.0,10.583359559402044,4.045239968528717
930.0,11.99645948072384,6.6826514555468135
931.0,13.770699861376494,6.965506163126148
932.0,14.109130418493123,7.177766850249148
933.0,16.939636477063516,7.052940064284364
934.0,11.966034191474698,6.87154889767738
935.0,11.310468296516637,4.898870623579239
936.0,8.144558265001791,3.9854568171659635
937.0,7.765512806773121,4.133169006537349
938.0,5.371585927840845,7.281623018995166
939.0,7.098081750402757,6.888891386609718
940.0,25.99520062942565,10.452202989771834
941.0,22.27797010228167,10.839319433516916
942.0,15.895052639466485,10.98964819602113
943.0,13.216212393690757,10.401590423738337
944.0,9.966180547750177,11.352447454198044
945.0,7.599602862388071,9.546925930088793
946.0,7.230620808512232,8.0250084298078
947.0,5.3080139372822295,8.455591772507587
948.0,5.790828369113184,7.0757109137911645
949.0,11.346240305721029,12.89702146791053
950.0,10.320298833084042,22.188317871480734
951.0,14.749533478585406,19.119195464907502
952.0,12.233234481228187,17.94427515180859
953.0,16.697262401904418,14.82657305977526
954.0,13.345641429119004,11.927605963404547
955.0,15.18524783634933,8.954956726986625
956.0,10.324649694653628,8.75790996965269
957.0,8.673211944101007,9.299519500955379
958.0,12.970476939792437,8.721937169832527
959.0,11.24283091678843,7.546521299314375
960.0,11.53172230339815,6.647768910868832
961.0,12.780684500393392,6.007985837922895
962.0,12.708556254917386,6.857631785995279
963.0,12.972541306058222,7.449960660896932
964.0,9.859336480461579,5.795846914690345
965.0,8.918481813230041,5.345632711112648
966.0,6.743975929656496,4.9316681220693805
967.0,8.65176391926982,4.8595435511249825
968.0,12.45438969632518,3.762318326834456
969.0,11.655925506436915,6.433171077545586
970.0,7.963208572177887,7.580926154883668
971.0,5.954876175489866,7.407436963770559
972.0,7.942875875763367,6.033595594020456
973.0,7.827128994792252,6.760241279832153
974.0,8.06612528567682,5.361706193098797
975.0,9.72999419279907,5.767792514330673
976.0,10.117013225431794,9.013734966842755
977.0,14.06541905511221,9.089048743021992
978.0,11.840381661349403,11.54604750088621
979.0,16.90067114239026,14.317130378145327
980.0,15.053503773960106,11.457144298135644
981.0,12.560622854721988,8.56566892326137
982.0,8.948667802168982,6.911482695117627
983.0,6.913622569405417,8.149372447641527
984.0,9.413594470046082,8.745698924731183
985.0,7.746428571428572,7.461175115207372
986.0,9.350368101607284,7.299086770821624
987.0,8.415103405642352,7.137043385410813
988.0,6.4361807350792395,7.105215241092504
989.0,7.253343823760817,7.436939417781275
990.0,6.886191974822973,9.269905586152635
991.0,5.355950507661758,8.366866172117943
992.0,10.260450439935099,8.8095393722459
993.0,12.232241348999807,12.870092266768111
994.0,10.918559698890146,14.138891530708996
995.0,9.960696057155538,14.544426095802963
996.0,8.3989348181323,14.042335935766303
997.0,8.67946498819827,13.50725806451613
998.0,8.747797010228165,12.420967741935483
999.0,8.129366640440598,10.301278520849724
1000.0,7.6595200629425655,7.4921715184893785
1001.0,6.211211644374508,7.169472856018882
1002.0,7.745180959874115,6.409677419354839
1003.0,7.869453186467347,7.903697875688434
1004.0,7.892426286014011,8.105151549211344
1005.0,8.216472781087257,9.584833839121801
1006.0,8.5245129444382,11.400973174478288
1007.0,8.573489191113108,10.951350642538682
1008.0,6.235069153243819,11.96654663196756
1009.0,6.564231965254782,12.984732609378556
1010.0,11.493406305208035,12.471801788560246
1011.0,12.454413616805434,9.449905614972492
1012.0,11.888113106405788,8.95728767691789
1013.0,10.279126859240943,8.167808437300963
1014.0,8.812816117792513,7.965375032782586
1015.0,8.475969427897043,6.786414896407029
1016.0,11.32531752276048,7.61665355363231
1017.0,11.416883031733542,6.8063298490127755
1018.0,10.177393128769996,7.049132666441872
1019.0,8.74307444456933,9.56527293844367
1020.0,10.215754374133603,9.006869356711999
1021.0,7.044934622157281,8.673379603611703
1022.0,7.050594769772582,10.104952980405379
1023.0,7.157899666554269,10.448503240792776
1024.0,8.181746656176239,9.903225806451612
1025.0,10.294181559327114,9.019444756659547
1026.0,8.969278033794161,9.574238507362033
1027.0,9.865362856393542,11.519928065640103
1028.0,10.388857667378517,11.123142632347982
1029.0,12.457045446030497,11.197347420478813
1030.0,13.267539620096661,11.957659885354612
1031.0,11.78963133640553,13.958294930875576
1032.0,8.416983252781836,11.798423625941329
1033.0,8.478043160615936,11.013403394402609
1034.0,7.9776780850935065,11.20175664225625
1035.0,8.317468074804818,11.952894450160382
1036.0,9.193814682563698,11.347818192822128
1037.0,11.080463596199237,12.239133329298554
1038.0,10.096880106518187,11.39258003994432
1039.0,9.531766325727773,12.07128245476003
1040.0,6.826534225019669,10.916561762391819
1041.0,5.263670338316286,10.572797010228168
1042.0,4.453343823760818,11.118804091266718
1043.0,5.340361919748229,11.683713611329662
1044.0,5.171361132966169,11.120771046420142
1045.0,7.729740361919748,12.046616837136112
1046.0,6.382612116443745,10.201022816679778
1047.0,6.949782698287812,7.578350380277997
1048.0,8.018164362519201,8.978749319130909
1049.0,7.69416282642089,10.976068207952551
1050.0,5.937522011164813,7.697367306179266
1051.0,6.249248810460454,7.250335895418507
1052.0,6.819512195121951,7.544981742621396
1053.0,8.224468922108576,6.1218725413060575
1054.0,8.983739837398373,6.883593720729833
1055.0,6.788093364804615,8.615675695927465
1056.0,6.437398373983739,8.584391742534937
1057.0,5.189824285339627,8.50258139447754
1058.0,7.0095462890112765,7.193855606758833
1059.0,8.878813083061704,7.145314900153609
1060.0,8.678813083061705,8.28726162376831
1061.0,10.653922670563112,6.471050166722866
1062.0,9.726154883668652,12.416170244651756
1063.0,9.133179723502305,13.23625192012289
1064.0,9.517303585478253,11.198817953617324
1065.0,10.099862313139262,11.174724626278522
1066.0,8.290388145816943,9.811421452924208
1067.0,6.5233805402570155,7.849829530553371
1068.0,5.9310254392866515,7.227117755048518
1069.0,7.06031995803829,5.1285077366902705
1070.0,9.13968004196171,4.475583530028849
1071.0,8.178442171518489,4.2840283241542085
1072.0,7.477871250176522,4.158365107224272
1073.0,7.560886844600455,4.201291129536605
1074.0,7.918444995864351,4.319685690653433
1075.0,5.695628027886093,5.33875989601796
1076.0,5.299426917168852,7.543170270589625
1077.0,5.738841744408227,6.777011914128357
1078.0,8.592404743171855,7.31874789254805
1079.0,6.898218500618186,7.9367933011127345
1080.0,5.556943351691581,7.002498033044846
1081.0,7.124036191974822,5.875845790715972
1082.0,7.384677419354839,9.125806451612902
1083.0,8.283870967741935,9.895967741935483
1084.0,7.392407553107789,8.55088512981904
1085.0,8.462450826121165,8.721911880409126
1086.0,8.17159716758458,9.002616050354051
1087.0,8.37612116443745,6.601711250983477
1088.0,6.787254130605822,5.4657749803304485
1089.0,8.463571990558615,5.919276160503541
1090.0,7.874272226593233,6.520849724626278
1091.0,6.067741935483871,5.293548387096774
1092.0,5.942387883556254,5.910955940204563
1093.0,7.930468135326514,7.759913453973249
1094.0,6.461605035405192,7.015440597954367
1095.0,6.62193154996066,8.966188040912666
1096.0,6.009874114870181,8.55656963021243
1097.0,5.72956333595594,7.358929976396539
1098.0,7.390991345397325,7.114142407553107
1099.0,7.728229336883939,7.942213883677297
1100.0,10.808200689947345,7.876790505586729
1101.0,10.428490588876112,8.000944426672199
1102.0,11.926125703564727,9.784815250314857
1103.0,14.93927252920172,9.65773020580259
1104.0,15.19624967217414,10.630444719193735
1105.0,12.337568843430368,10.76443745082612
1106.0,11.351003147128246,10.83831628638867
1107.0,9.678055337004983,9.37660821999925
1108.0,10.244269603986362,9.361691206773818
1109.0,10.780671387359035,11.003426248548198
1110.0,9.511837323442359,9.739115244839084
1111.0,8.680249896969016,9.000232288037166
1112.0,7.141528043160616,8.613028736278146
1113.0,9.46738312828006,7.742142986832208
1114.0,8.23951375139416,8.222527040229636
1115.0,10.154487683834654,8.568205935161089
1116.0,14.291327240815832,7.207627751215478
1117.0,11.321509411123888,10.495631342169501
1118.0,8.619315499606609,9.200255704169944
1119.0,8.697560975609756,9.838434303697877
1120.0,8.710857592446892,9.420790715971675
1121.0,10.647285601888276,12.104996066089692
1122.0,13.745121951219511,11.652340676632573
1123.0,12.83869000786782,11.673347757671124
1124.0,9.61457513768686,11.043823760818253
1125.0,7.560306845003934,11.457002360346184
1126.0,10.825393391030683,11.637627852084972
1127.0,11.376671911880408,12.208162863886702
1128.0,10.83215316024128,11.22614364392492
1129.0,11.27878311041175,9.49859503203327
1130.0,11.51440299099165,8.5322828965081
1131.0,8.601576003757037,8.332231141409046
1132.0,7.693785641532333,7.573668678493664
1133.0,9.099580992809177,7.582226044315957
1134.0,7.2536457285052975,8.038634658664666
1135.0,6.365132441646997,10.96121351766513
1136.0,7.331759769210596,9.218509984639017
1137.0,6.560215053763441,8.264093701996927
1138.0,7.975268817204301,6.292127496159754
1139.0,7.1073826383425125,4.784350530141246
1140.0,9.61713217938631,6.532651455546812
1141.0,9.875904799370574,6.435680566483084
1142.0,12.24604642014162,6.335346184107002
1143.0,11.808180660147615,7.741463414634145
1144.0,7.742406616462477,7.528874901652242
1145.0,7.10294012963171,7.266227380015735
1146.0,7.677756547150725,5.213854857442584
1147.0,9.448634371136338,5.527069049492338
1148.0,10.09343973624068,7.5027162714023445
1149.0,8.721928740024726,7.715184893784421
1150.0,10.047510396762952,8.595515342250197
1151.0,8.425214491776254,8.14192049754599
1152.0,8.055880259263422,7.4088044659248435
1153.0,8.487027462440523,6.409358959949046
1154.0,7.610641227380016,6.638473642800944
1155.0,7.929543666404406,10.36825334382376
1156.0,7.159971525982542,10.55544003596718
1157.0,7.861127202197226,9.03481265652784
1158.0,5.811602153419621,8.27326785462112
1159.0,4.900155915419488,7.612440378923463
1160.0,4.707355691777407,8.654371251617514
1161.0,6.945890576771772,8.133496741915309
1162.0,6.625550747442958,8.423406766325728
1163.0,6.18259244689221,7.389732494099135
1164.0,6.819118804091266,7.3376081825334385
1165.0,6.665076242928328,8.573247536622832
1166.0,6.9093055711663105,7.197642463751826
1167.0,7.004435663995066,6.383633059832903
1168.0,6.946041592815786,9.837135176651305
1169.0,9.019303251167925,8.980615188640366
1170.0,7.817067983157676,9.430437226031247
1171.0,6.979271318767778,9.110687123000263
1172.0,6.887686860739574,10.065833988985052
1173.0,7.714162077104642,9.64343036978757
1174.0,6.247797010228167,9.56852871754524
1175.0,5.907612116443745,9.863650668764752
1176.0,5.447757671125098,9.578599527930763
1177.0,5.956058221872541,9.414240755310779
1178.0,7.473387096774193,10.685483870967742
1179.0,10.66825334382376,11.761526357199056
1180.0,9.398013375295044,12.615558615263572
1181.0,8.621105428796223,11.772659323367428
1182.0,10.651435877262,10.784323367427223
1183.0,10.135798583792289,9.574822974036191
1184.0,10.900393391030683,10.117545239968528
1185.0,11.204248623131392,8.972226593233675
1186.0,11.355861526357199,10.730802517702596
1187.0,9.94543666404406,10.129760031471282
1188.0,13.5404602675059,11.418509047993705
1189.0,12.426278520849724,12.465302911093627
1190.0,11.34162077104642,10.799134539732494
1191.0,13.474193548387095,12.360228166797796
1192.0,13.758733280881195,13.071459480723838
1193.0,17.897108575924467,10.165165224232886
1194.0,13.46266719118804,9.743469708890636
1195.0,11.468548387096774,8.712096774193547
1196.0,15.389439324116742,7.880337941628264
1197.0,20.25126728110599,6.288364055299539
1198.0,30.455737889176124,7.128279195234349
1199.0,20.537315949196355,5.69743452849275
1200.0,16.56075081488142,4.322861638754636
1201.0,15.297366153385035,7.4573639054362895
1202.0,13.694616162751489,17.860851972575023
1203.0,12.468247723951894,24.78989172380203
1204.0,11.67809373946274,21.034768273950018
1205.0,10.373114532988648,14.71258476640066
1206.0,8.570506912442397,19.871005207747928
1207.0,7.658974935371473,13.318272076729983
1208.0,9.411762391817467,12.202006294256492
1209.0,9.43994885916601,16.994787568843428
1210.0,8.688119590873328,18.622797010228165
1211.0,7.119021392978906,15.968790978232361
1212.0,8.747551609156645,17.10477314450564
1213.0,8.715482746993368,17.322084223146376
1214.0,9.906315799333107,16.815944513131768
1215.0,9.752332246824771,18.287100520774793
1216.0,8.878086246300251,18.151998801094003
1217.0,8.88082125060882,18.883237795511597
1218.0,7.58941216140272,18.503600464576074
1219.0,6.7384698962197,17.231531227754672
1220.0,8.441047544115994,16.064767149975648
1221.0,6.841030684500394,14.118174665617623
1222.0,6.399114870180959,13.982297403619198
1223.0,6.167040892493292,15.394002299824487
1224.0,6.979815077395722,12.539176414982867
1225.0,7.58466560321399,7.704265626846272
1226.0,5.680639253219898,5.794874748907008
1227.0,5.763982097105622,8.95289567500425
1228.0,5.970937769285527,9.177198306545277
1229.0,6.775688434303698,8.281313926042486
1230.0,6.978282005170282,7.148145442283916
1231.0,7.7704844329549285,4.690457457569967
1232.0,7.5198606271776995,7.271507249634709
1233.0,7.457637405867145,12.721531602412798
1234.0,8.528582668315162,13.768318908995543
1235.0,8.03180285489491,10.362730883069199
1236.0,6.98985894121614,10.679870555617999
1237.0,7.57037203551759,10.114551721554083
1238.0,7.229071597167584,10.043076317859953
1239.0,8.781764452437152,12.098118279569892
1240.0,11.810030534637143,9.222967479674796
1241.0,12.794462552920459,6.981379491214267
1242.0,11.905885879135289,6.924206661421453
1243.0,10.10911917874939,7.250065565171781
1244.0,6.72053501180173,7.732022029897719
1245.0,6.956884343036978,8.67946498819827
1246.0,11.677928889887976,9.90082050129257
1247.0,10.824015585777978,10.503424375257577
1248.0,10.616177737814244,8.992860889438388
1249.0,11.494733243415384,8.162677494286463
1250.0,11.330204937994079,8.673579109062981
1251.0,9.027537372147915,9.52322880371661
1252.0,6.533123524783635,9.81038552321007
1253.0,8.596538158929977,11.829583005507473
1254.0,8.516050354051927,14.041148701809597
1255.0,21.17501966955154,18.81876475216365
1256.0,14.160849162639094,13.73949364954479
1257.0,14.328408452287288,8.499988760256265
1258.0,20.063397774530742,6.029833089805551
1259.0,15.37459443258027,3.986133902813682
1260.0,13.11436251920123,3.735867895545314
1261.0,12.687135176651307,4.049961597542242
1262.0,22.948685454330615,20.536343495214464
1263.0,19.459116152664542,13.58508803024932
1264.0,16.489158690771596,11.473035566583953
1265.0,13.464740635708377,9.128453267162943
1266.0,9.393923206076245,11.645434435531959
1267.0,10.671675061622548,8.744789768870788
1268.0,9.14113706998178,18.52178044511128
1269.0,8.102058550351874,16.46211910120387
1270.0,7.771928173681051,12.1890847276279
1271.0,8.016046607470683,14.69679292645461
1272.0,16.037132366715372,15.329272039264172
1273.0,17.633389532052004,10.096586864486156
1274.0,23.21262410550373,8.394683601213892
1275.0,14.607334869431645,18.19930875576037
1276.0,16.139554531490013,13.778686635944698
1277.0,10.507346109175378,13.963035292795324
1278.0,9.669929938930725,10.340850848600653
1279.0,8.420141620771046,9.884480723839495
1280.0,12.022167584579071,9.997482297403618
1281.0,13.808261211644375,12.27616050354052
1282.0,9.732140047206924,9.883320220298977
1283.0,7.621774193548387,9.530645161290323
1284.0,8.72983870967742,6.279032258064516
1285.0,7.025688434303698,4.679779701022817
1286.0,7.427222659323366,6.010070810385523
1287.0,7.209579071597167,6.584067663257278
1288.0,5.6792879622344605,5.990263571990559
1289.0,5.917230527143981,9.854209284028324
1290.0,8.416129032258064,10.79618410700236
1291.0,6.684303697875689,14.424527930763178
1292.0,6.184893784421715,11.92234461054288
1293.0,4.938237608182533,11.272738001573563
1294.0,5.606726986624706,11.317171518489378
1295.0,6.526750590086546,13.034795436664044
1296.0,6.67193904312315,10.839805552433404
1297.0,11.088792102206735,12.004580195571542
1298.0,12.18168952081226,13.374044621782623
1299.0,11.30576411524484,13.83178037540744
1300.0,9.279187741186167,13.045191262972537
1301.0,8.44555842793451,16.663401521111986
1302.0,9.61727173953767,14.944190925780225
1303.0,8.654651380615189,12.803274512007793
1304.0,7.660803267018846,10.289048743021992
1305.0,7.868112847027088,7.616567382263685
1306.0,7.240283241542093,7.542182758233112
1307.0,5.7098347757671135,6.742767224907272
1308.0,6.013791165561425,7.678931100370911
1309.0,5.9297909407665506,7.4656653928290435
1310.0,5.196347083286501,8.488074631898392
1311.0,5.303933910306846,8.14311565696302
1312.0,10.138760256266156,7.523489191113109
1313.0,12.179608294930876,8.305568356374808
1314.0,8.498271889400922,6.964477726574501
1315.0,8.01484208160054,6.188621632760106
1316.0,8.942334494773519,8.129794687347795
1317.0,7.873701809598741,7.386172305271439
1318.0,7.079189614476791,8.424134539732494
1319.0,9.470585590648533,6.94695590273875
1320.0,7.3679967030085045,7.881874039938555
1321.0,12.276651305683565,11.103763440860213
1322.0,10.768087557603685,9.303302611367126
1323.0,8.350399010902551,8.288374358397961
1324.0,6.374508261211645,8.881667977970102
1325.0,6.894781012326252,7.797055187141733
1326.0,7.4750402757483805,7.7986812034018955
1327.0,9.873157618672963,7.7142407553107795
1328.0,12.02768817204301,9.093548387096774
1329.0,10.458523472331496,8.71382769472856
1330.0,9.81731857180323,7.074060544752913
1331.0,9.998483571241241,5.19556685774231
1332.0,10.712548237233523,5.5715737514518
1333.0,10.632857517515266,5.476040612940691
1334.0,8.71437188565434,6.658386722116068
1335.0,8.003652916713499,6.944093514667865
1336.0,7.477278858042037,7.3258626503315725
1337.0,7.166865235472631,7.400258514105879
1338.0,6.962980030721966,7.948771121351767
1339.0,6.519278033794162,6.737980030721966
1340.0,6.373041474654378,8.942972350230415
1341.0,7.373886328725039,7.962211981566821
1342.0,6.2679817166835265,8.745633359559402
1343.0,5.666595481623019,8.290757184069538
1344.0,6.567168708553445,8.287314075905735
1345.0,7.066456858116968,8.069079464988198
1346.0,7.656884343036978,9.637765538945711
1347.0,6.531353265145555,11.027537372147915
1348.0,7.840814319433516,10.435090479937056
1349.0,9.000649095200629,9.24012588512982
1350.0,8.249921321793863,10.20796616837136
1351.0,6.308182533438238,9.759343036978757
1352.0,6.834736428009441,10.319590873328089
1353.0,5.990932336742722,9.370259638080253
1354.0,6.559166011014948,7.072993705743508
1355.0,6.722363343449103,7.14281405717283
1356.0,6.011378367239894,7.717119066351953
1357.0,5.546011764265108,9.03718856543404
1358.0,4.765138061518864,9.618908995541567
1359.0,5.9671481023565995,9.4892341987936
1360.0,7.148704619534675,7.710822936570379
1361.0,6.7924974710576596,8.082427597317448
1362.0,6.345442283915927,8.596455734142594
1363.0,8.798134202540183,9.153932037016222
1364.0,8.967281105990782,8.544393241167434
1365.0,9.369354838709675,8.291935483870969
1366.0,11.893279569892472,8.187864823348693
1367.0,11.24543010752688,8.230222734254992
1368.0,7.638440860215053,8.435675883256529
1369.0,5.659946236559139,8.295660522273426
1370.0,5.946131654864935,8.63918549323742
1371.0,6.979476083842723,8.318056648308419
1372.0,8.734250237043312,8.821380802517702
1373.0,6.564509068167604,9.935601888276947
1374.0,5.939276563981521,10.085759244689221
1375.0,8.712517904335371,9.504956726986624
1376.0,7.885976546401408,7.105780974860439
1377.0,5.9243677644149715,7.212532314263235
1378.0,4.842593008879398,6.450483308980555
1379.0,5.23168202764977,11.143022929077217
1380.0,6.897695852534563,9.117882432280545
1381.0,6.418279569892473,9.758787606309243
1382.0,6.458064516129031,8.334539732494099
1383.0,6.554366640440597,8.428481510621557
1384.0,7.0189614476789925,9.110070810385523
1385.0,7.020633359559401,7.070712037765539
1386.0,6.686959087332808,7.877124311565696
1387.0,6.36243115656963,8.678481510621559
1388.0,7.952812745869394,7.957966168371361
1389.0,8.275216365066875,7.909362706530291
1390.0,7.334303697875688,6.037686860739575
1391.0,8.050277247012101,6.871865048143569
1392.0,7.590815256078828,8.508552508336143
1393.0,7.507661758645236,9.449290022854147
1394.0,6.158630249896969,8.688059645573414
1395.0,6.699355588025926,7.618916488704057
1396.0,7.4392491851185785,8.103218313289123
1397.0,10.430954254243002,8.365771233749204
1398.0,10.152770596830393,9.552358472893484
1399.0,10.762459255928963,8.991364130231164
1400.0,9.305782848151061,8.620967741935484
1401.0,7.759421715184894,9.694984264358773
1402.0,8.68575924468922,9.804346970889064
1403.0,8.842265183020494,10.18541081263347
1404.0,9.092572402682553,9.73117904911768
1405.0,12.213556067588325,10.230184331797236
1406.0,9.347503840245775,13.897350230414746
1407.0,7.96614963845491,12.35352365966056
1408.0,9.867427222659323,10.349291896144768
1409.0,9.037018095987412,9.83426435877262
1410.0,9.171892210857592,11.07738001573564
1411.0,9.629897718332023,10.13627065302911
1412.0,7.09897718332022,9.564594807238393
1413.0,5.689929189614476,9.606451612903225
1414.0,5.086191974822974,9.465853658536584
1415.0,7.512647521636507,8.444728560188828
1416.0,10.216994492525572,9.382297403619198
1417.0,10.786703383162864,8.699409913453973
1418.0,7.475413060582218,8.981805664830842
1419.0,7.1602871754524,10.275983477576712
1420.0,7.599449252557042,10.680645161290322
1421.0,7.863768686073958,12.696892210857591
1422.0,8.410169158143194,10.760562549173878
1423.0,7.058280881195909,9.812903225806451
1424.0,9.76088007193436,10.951382488479261
1425.0,8.792844966468099,10.140447154471545
1426.0,6.804890225169533,10.306110674009965
1427.0,7.964984451687834,11.95997901914503
1428.0,7.860503540519275,10.801464913266642
1429.0,7.571591547712712,9.586834513506425
1430.0,8.255457832228092,9.938578547075792
1431.0,8.718631748529466,8.902176763703121
1432.0,8.573477951369373,8.556517178075005
1433.0,7.711086133902814,7.581177175827057
1434.0,8.922655576786184,7.834333670525645
1435.0,6.988670338316287,7.609716758457907
1436.0,7.554838709677419,7.108870967741936
1437.0,8.157258064516128,7.999999999999999
1438.0,7.064516129032258,8.414208909370199
1439.0,5.073387096774193,8.6571044546851
1440.0,6.943548387096774,7.653149001536098
1441.0,6.656451612903226,9.31931643625192
1442.0,6.737057435090479,10.282052002547674
1443.0,9.244104754411598,11.733959949046493
1444.0,14.350101157693604,11.854440635420179
1445.0,14.309689595743883,11.85335319021393
1446.0,11.192836536660296,9.591173054587689
1447.0,10.843392903975122,10.354276722490727
1448.0,9.515154921134464,14.319958038290059
1449.0,6.942235210370537,13.523236296879098
1450.0,6.456678281068525,11.360158855044771
1451.0,6.027945749503577,12.231062905099098
1452.0,10.04776703757821,10.667374770521898
1453.0,9.085333215171925,12.518651778329197
1454.0,7.522908543069834,10.22222911497105
1455.0,6.959241446987317,9.103138554338395
1456.0,5.276365412714744,10.121228993927655
1457.0,4.893081361334705,10.250294538925537
1458.0,6.044472856018882,9.807612116443746
1459.0,6.325570416994491,9.179543666404406
1460.0,7.276868607395751,11.119669551534226
1461.0,8.031038552321007,11.443784421715185
1462.0,7.267053501180173,12.626062155782847
1463.0,7.72155782848151,12.101180173092054
1464.0,6.967466561762391,10.480645161290322
1465.0,6.043191525233224,9.112095837548235
1466.0,4.740547375519838,8.160080176838633
1467.0,4.052841925973318,7.842529749296075
1468.0,3.8563186813186814,8.66461656622947
1469.0,5.440659340659341,8.10459388500301
1470.0,5.410421836228288,9.047381427908572
1471.0,7.343920595533498,9.772884262341382
1472.0,12.106451612903225,10.194217151848939
1473.0,10.379032258064516,11.640464950732458
1474.0,9.966935483870966,11.130145929339477
1475.0,7.32258064516129,10.088863287250383
1476.0,5.29516129032258,11.728302611367127
1477.0,6.2069065343258885,11.874707550514001
1478.0,7.856679073614557,11.392576509511994
1479.0,7.5948717948717945,10.803949545078577
1480.0,7.76033912324235,11.668507030603806
1481.0,5.851274990417398,11.93957412899191
1482.0,7.217791577685363,10.876498632497846
1483.0,6.4883312727136495,11.558007380765051
1484.0,10.50545595893747,11.575374658124462
1485.0,9.732969914952605,10.361477651642875
1486.0,8.996697388632873,9.95099846390169
1487.0,6.850806451612903,9.125806451612902
1488.0,7.201612903225806,9.037096774193548
1489.0,7.662844217151848,10.450275373721478
1490.0,5.803599527930762,11.321105428796223
1491.0,4.542329406511152,10.722398834711974
1492.0,5.104839227655907,9.236447556313802
1493.0,5.295968000924727,9.37548184267303
1494.0,6.391099657425385,9.796316845805437
1495.0,8.429184761836217,9.033445598355119
1496.0,7.64624866347919,7.664467711674636
1497.0,8.213650668764751,10.416601101494885
1498.0,6.91266719118804,9.649881982690793
1499.0,6.268292682926829,8.498819826907948
1500.0,5.536585365853659,8.910306845003934
1501.0,5.315499606608969,8.392604248623131
1502.0,7.227380015735641,8.993076317859952
1503.0,8.297403619197482,9.28198269079465
1504.0,8.173170731707316,9.101652242328875
1505.0,18.118056648308418,10.493784421715183
1506.0,41.81473249409913,10.139968528717546
1507.0,44.24405979543666,10.526435877261997
1508.0,33.819226518302045,8.992442208984302
1509.0,25.706239931062907,8.53246225319396
1510.0,20.218580233037354,9.546797609681166
1511.0,12.796691768761006,11.892704469671425
1512.0,10.334813232924954,10.75600014986325
1513.0,10.550157356412274,11.198426435877261
1514.0,8.659421715184894,9.761290322580646
1515.0,8.55027537372148,8.825806451612902
1516.0,7.658693941778127,9.560818253343824
1517.0,6.540991345397325,9.093548387096774
1518.0,6.791738788355626,9.484618410700236
1519.0,6.554405979543667,11.733261211644376
1520.0,5.916843188283,10.68754665214146
1521.0,6.332929855353145,11.872569549516836
1522.0,6.2126490346789325,11.79663095886542
1523.0,6.1132481994795125,11.660785975105409
1524.0,5.276923076923077,10.949669148056245
1525.0,4.8999999999999995,9.913709677419355
1526.0,4.36787962234461,9.367564909520063
1527.0,4.692407553107789,10.096282454760031
1528.0,6.53249409913454,8.475963808025178
1529.0,10.806569630212431,9.761369000786782
1530.0,13.020220298977183,12.001652242328873
1531.0,15.951101494885917,12.78013375295043
1532.0,12.576126784309317,14.608308043909933
1533.0,10.333578734404856,10.43908714547975
1534.0,7.685770484432955,10.127480236783935
1535.0,9.028211756771945,12.226181109737364
1536.0,8.698606271777003,12.1532164399985
1537.0,13.157828481510622,13.194964594807239
1538.0,14.048308418568055,9.683084185680567
1539.0,12.783162863886702,10.55357985837923
1540.0,10.376868607395751,9.755546813532652
1541.0,12.450432730133754,8.874232887490164
1542.0,11.95009834775767,8.876809598741147
1543.0,9.918194335169158,12.519453186467347
1544.0,9.460306845003934,11.805291109362706
1545.0,12.035030534637144,11.015068749765838
1546.0,8.962380001325714,10.537825484245626
1547.0,7.312897317736027,11.122964669738863
1548.0,8.622577691126079,9.228417818740398
1549.0,8.570897421487508,8.501266344460678
1550.0,6.961060340131937,9.486742722265932
1551.0,5.936742722265931,9.428658536585367
1552.0,10.036880409126672,12.180645161290323
1553.0,7.464988198269079,10.776553894571204
1554.0,8.559476977258251,11.565359109812295
1555.0,9.202690045333632,11.11929114682852
1556.0,9.240380652654451,10.544902776216702
1557.0,11.278071259975274,7.905064513247046
1558.0,11.028571428571428,9.376450431289141
1559.0,8.984631523734592,10.584060890591182
1560.0,8.090472443894946,9.932890660349354
1561.0,6.762286913191712,10.573664992233049
1562.0,7.540283241542093,9.816443745082612
1563.0,7.426081825334382,9.391778127458693
1564.0,6.7594610542879625,9.40241935483871
1565.0,7.455940204563336,9.505645161290321
1566.0,9.470712037765539,10.301612903225806
1567.0,7.927694728560189,10.812903225806451
1568.0,8.464840208309917,10.93831628638867
1569.0,7.205875576036867,10.821505376344085
1570.0,6.493132516578621,9.598950957251507
1571.0,7.267073170731707,9.585112959424524
1572.0,8.640440597954367,9.8353377542992
1573.0,8.695103218313289,8.37832977408115
1574.0,9.110711475778352,7.642613615076243
1575.0,13.19736989996628,8.292982653328838
1576.0,11.744767899291896,7.694571203776554
1577.0,10.938473642800943,7.0904799370574345
1578.0,7.933831628638867,5.949252557041699
1579.0,7.6860346184107,5.675461766138399
1580.0,6.691955153422502,5.652050316586115
1581.0,7.193961447678992,4.787718706680154
1582.0,7.172462627852084,8.506133153497434
1583.0,6.687595069499082,8.389442134052677
1584.0,7.777668502491476,8.880972987149226
1585.0,7.765466824023079,9.57384605297666
1586.0,6.640099659061106,7.705481248360871
1587.0,6.699986886965644,8.948728035667454
1588.0,5.715047206923682,10.17490165224233
1589.0,7.108575924468921,9.734480723839496
1590.0,7.521361132966168,9.185444531864672
1591.0,6.81652335993406,9.095494736053352
1592.0,7.264369075718406,8.612165149301262
1593.0,7.549024015585777,9.346558765126822
1594.0,7.388595406691394,7.7712337492038515
1595.0,7.669671424824847,8.429440635420178
1596.0,8.222877777873844,7.710466507004665
1597.0,8.255026615136764,8.632573930134905
1598.0,8.09302790050233,7.830495874437652
1599.0,12.122831810203957,8.446011115818354
1600.0,9.688028808327786,9.444376525651112
1601.0,10.097364280094412,9.189103068450038
1602.0,7.080546813532651,9.501711250983478
1603.0,7.347934697088906,7.874645948072384
1604.0,7.069531864673485,7.986113296616836
1605.0,9.843233674272225,8.160798583792289
1606.0,12.343941778127459,6.694138473642801
1607.0,11.429248623131391,7.569728560188828
1608.0,10.003314787756171,8.341104679479974
1609.0,8.601155820313963,8.33218687947248
1610.0,7.884717695103218,8.675770859091077
1611.0,7.0536885092353225,9.224195421677718
1612.0,7.2754673860102645,8.050335319021393
1613.0,6.132126934172567,9.763493312352479
1614.0,7.479045371098872,6.837922895357986
1615.0,5.685759244689221,7.441542092840282
1616.0,7.056097560975609,9.129504327301337
1617.0,9.341188040912666,10.917545239968529
1618.0,9.233497246262784,8.95232100708104
1619.0,8.037765538945711,8.804228953579859
1620.0,7.7560975609756095,7.758890637293469
1621.0,7.6527930763178595,8.54427616050354
1622.0,7.57639653815893,9.605605822187254
1623.0,8.120456333595595,9.604012588512981
1624.0,6.907199055861526,13.527025963808025
1625.0,7.33794256490952,11.891365066876475
1626.0,6.837116443745082,11.45898898505114
1627.0,5.704176501442434,11.455128133078567
1628.0,5.557172829792814,10.282038889513318
1629.0,10.30518714173317,9.05454834963096
1630.0,9.143938968191524,11.287305646097934
1631.0,13.359469484095763,10.03437862950058
1632.0,15.068982053875837,10.729631711063654
1633.0,10.970368288936346,9.623667153722229
1634.0,8.759284028324153,11.063257277734067
1635.0,9.324173878835563,12.050118017309204
1636.0,8.577812745869394,13.533929976396537
1637.0,7.700236034618411,11.995751376868608
1638.0,8.50125885129819,13.55051140833989
1639.0,9.637647521636506,10.369354838709677
1640.0,11.086093627065303,12.25163257277734
1641.0,9.301848937844216,10.997639653815892
1642.0,7.460785470757933,8.635345247461691
1643.0,6.575150799895095,7.832188752763104
1644.0,6.5738657225281925,9.062062118317035
1645.0,6.11995803829006,7.0479075343748825
1646.0,6.261788617886179,6.826078078753137
1647.0,7.181431943351692,5.800059008654602
1648.0,5.926750590086545,4.784264358772619
1649.0,6.171439811172306,4.021164437450826
1650.0,5.2010036514757205,3.2217625935564564
1651.0,5.728597438491223,7.2292732641080395
1652.0,8.62628731090572,11.052156301605553
1653.0,10.250122412337202,17.37320639627878
1654.0,10.42849822613788,16.913196900136317
1655.0,12.739653815892996,12.889187366528041
1656.0,13.210763927915776,12.26563823011502
1657.0,11.2857910906298,8.646351766513057
1658.0,10.805110336817654,5.914806489078716
1659.0,9.079974523247536,6.299185118579297
1660.0,8.910055824060546,7.176605410063317
1661.0,8.29339196732981,9.557484732681427
1662.0,7.414034693342325,11.01543591472781
1663.0,6.271533475703421,12.483327713461467
1664.0,6.783308980555243,10.077531752276048
1665.0,6.147826982878123,7.62437525757746
1666.0,6.366540219549661,5.606888089618224
1667.0,7.515124948484508,10.812315012551048
1668.0,5.5818740399385565,10.39915514592934
1669.0,6.1476246674909145,10.489251058409202
1670.0,5.966660110149489,7.853697875688434
1671.0,5.315184893784421,6.251848937844217
1672.0,6.78985051140834,4.379150275373721
1673.0,5.5634146341463415,3.5498819826907946
1674.0,5.8086152635719905,6.0832022029897725
1675.0,7.607297403619197,7.627753737214791
1676.0,7.70163257277734,7.313473642800944
1677.0,10.47738001573564,7.5497639653815884
1678.0,9.562450826121164,7.6548977183320215
1679.0,11.292210857592446,9.45306845003934
1680.0,12.94322805440036,9.12743715109962
1681.0,10.884554762383974,10.58555841050855
1682.0,10.366510268682152,10.769647812650026
1683.0,22.618926334371054,9.575449960050989
1684.0,15.408204315887335,5.828637647216682
1685.0,19.93401111601942,6.913850500952763
1686.0,27.2703814019707,7.200736203214566
1687.0,22.664321306807537,13.48358997414859
1688.0,16.85066876475216,27.27734067663257
1689.0,20.67789142407553,37.13599527930763
1690.0,19.807553107789143,31.12244295830055
1691.0,19.742639841144957,30.836087070548125
1692.0,15.71317672623731,29.658562811434564
1693.0,13.696871604660748,20.691594544977708
1694.0,12.894069161889774,15.061139522685547
1695.0,11.890122138548575,11.164920759806675
1696.0,7.857119441010078,10.102813682514704
1697.0,7.943479075343748,8.996568131579933
1698.0,7.4576523921921245,6.3348394589936685
1699.0,7.644247124498895,11.67056685774231
1700.0,8.078651980068187,11.091811846689895
1701.0,8.048111723052713,11.029261736165749
1702.0,6.674665617623917,9.858641489640704
1703.0,5.635412685924093,9.562346858491626
1704.0,5.218099733992732,8.471417331684837
1705.0,5.373642800944139,7.938473642800944
1706.0,5.895318646734855,8.337450826121163
1707.0,6.309972462627853,6.458261211644373
1708.0,8.292486231313926,6.024291896144767
1709.0,6.811506687647522,6.18654602675059
1710.0,7.469236821400472,5.364122738001574
1711.0,7.7090479937057435,4.856333595594021
1712.0,6.843509047993706,5.565145554681353
1713.0,7.017329379249127,9.651762190078475
1714.0,6.145486090096632,10.56797393532248
1715.0,4.919320543081361,10.05582016986423
1716.0,5.016072545340839,8.787784199802296
1717.0,6.5654713631503565,7.5287367104440275
1718.0,6.945928402832416,7.650059008654603
1719.0,6.950432730133753,7.884697088906373
1720.0,6.485051140833988,11.444708890637294
1721.0,6.192486231313925,9.291030684500393
1722.0,5.207179386309992,8.484618410700236
1723.0,5.040283241542093,8.526986624704957
1724.0,4.602360346184106,6.982533438237608
1725.0,9.985837922895357,6.916601101494885
1726.0,10.416722144888944,8.319050212834634
1727.0,10.853522362767052,8.568258387298513
1728.0,10.269031047630575,11.434974984365228
1729.0,12.5627413302669,12.647729427666484
1730.0,10.69629001997216,10.880316326736468
1731.0,8.130527143981118,9.852399685287175
1732.0,10.634107002360345,11.708261211644373
1733.0,7.879059420778539,12.016526169869993
1734.0,8.362705593645797,9.487832977408114
1735.0,7.378338203888951,10.349100820501292
1736.0,10.319096324603798,12.50938518601776
1737.0,7.271271215016297,11.310216927054062
1738.0,9.807257127870816,10.956595856281144
1739.0,11.119373571615899,12.072383949645946
1740.0,15.145554681353264,10.385500730583342
1741.0,12.691738788355623,9.165527705968303
1742.0,10.18296616837136,7.837372147915028
1743.0,9.713172043010752,5.7375576036866365
1744.0,6.621603724101758,4.572555355737889
1745.0,5.58862444269604,3.5872598945769676
1746.0,7.940132441646997,7.150769994495407
1747.0,8.9965906110674,8.831236688829135
1748.0,7.792918961447679,9.514696685428392
1749.0,7.602832415420928,8.852391615727573
1750.0,6.998190401258851,8.664988198269079
1751.0,6.390156145978333,8.620859811575784
1752.0,4.721041881014344,6.446543202404729
1753.0,5.68511771470072,5.861981278621719
1754.0,6.49255885735036,5.046313219956021
1755.0,5.397203897597288,8.431771873550002
1756.0,6.543273013375295,7.790125885129818
1757.0,8.140152416152818,8.492239675772602
1758.0,10.45129740623309,8.582582971526854
1759.0,9.624035799890738,7.717904388989234
1760.0,8.212568647388327,5.708834177185411
1761.0,8.563798092380237,5.422237702282714
1762.0,8.483736090817128,7.185191637630663
1763.0,5.729425649095201,7.725314712824549
1764.0,7.949390243902439,9.53402832415421
1765.0,26.676612903225806,8.139968528717546
1766.0,22.239708141321046,8.004546476340339
1767.0,14.621821025813945,8.03728503990109
1768.0,13.864539545165037,7.820658648982803
1769.0,9.790206436626578,8.475553557378891
1770.0,8.532509085459518,8.738675958188153
1771.0,8.935993406017008,7.893531527481173
1772.0,7.16843879959537,7.871459480723838
1773.0,10.515454647634034,8.634146341463413
1774.0,9.782668315162415,8.788119590873327
1775.0,8.519354838709678,8.29096324603799
1776.0,7.91923494810985,9.859907834101381
1777.0,6.147937218826282,10.758560794044664
1778.0,6.708980411144061,13.654418083883073
1779.0,6.281732534446932,10.434231071839255
1780.0,6.485083419072403,8.275730799491617
1781.0,6.42657003369041,8.575080191248563
1782.0,7.761506687647521,8.333693941778126
1783.0,10.658693941778127,8.57387883556255
1784.0,7.927301337529505,11.30739575137687
1785.0,6.281274586939418,12.689653815892996
1786.0,9.179346970889064,14.27789142407553
1787.0,7.516286388670338,12.167977970102282
1788.0,8.150859840395638,9.440345060132628
1789.0,6.881566820276497,11.697119815668202
1790.0,5.5050241654490275,10.384033944026076
1791.0,6.93538458656476,9.965711288449288
1792.0,5.876838634745795,10.637458319283652
1793.0,5.55570042336368,9.402830542130305
1794.0,6.287527631036679,8.682866883968378
1795.0,7.231726049979394,8.579828406578995
1796.0,6.601730920535012,8.145751376868606
1797.0,6.017230527143981,7.881687647521636
1798.0,7.970318646734855,9.399095200629425
1799.0,9.240401258851298,10.400354051927616
1800.0,8.787136113296615,8.83082218725413
1801.0,8.903383162863886,8.35609756097561
1802.0,8.11573564122738,8.132022029897717
1803.0,7.685064253868346,7.080758135124775
1804.0,9.365112772095463,8.841991970788193
1805.0,10.422322131055413,8.727217183550778
1806.0,8.073631561200404,8.055898127573972
1807.0,6.940828369113184,8.79742191980587
1808.0,6.675502041886778,9.321858491626392
1809.0,7.1378985425798955,12.407732943688885
1810.0,8.423787980967367,11.63243790041587
1811.0,8.788280693866845,12.935259076093065
1812.0,9.267468435053015,11.837181072271552
1813.0,9.466189986252928,10.711172593469996
1814.0,8.435691373928982,8.809166155114227
1815.0,6.36409348584801,10.084278480501926
1816.0,6.868356735056184,8.054649075026731
1817.0,8.595065464302285,8.641840666545622
1818.0,9.034210033344573,7.570240905174028
1819.0,7.582407927765914,6.36340526769323
1820.0,8.26114888913866,8.082646772320258
1821.0,7.894687347795137,9.20462983777303
1822.0,6.1683114158330525,9.330137499531677
1823.0,4.836075830804392,7.139339103068449
1824.0,6.834639016897081,7.330645161290322
1825.0,6.37215821812596,6.951612903225806
1826.0,6.001728110599078,6.395775729646697
1827.0,5.8423963133640555,6.826113671274962
1828.0,5.203137761792364,5.875291296691769
1829.0,6.370117267992956,7.475548874152336
1830.0,8.894736053351316,8.36559701772133
1831.0,6.884618410700236,8.925118017309206
1832.0,7.3382769472856015,8.086349331235247
1833.0,6.602419354838709,5.989516129032259
1834.0,7.33324154209284,6.915283241542093
1835.0,10.547324940991345,7.614929189614477
1836.0,7.357456633322094,8.965010677756547
1837.0,8.173486381177176,8.094602113071822
1838.0,7.850856093814395,9.235607508148814
1839.0,8.389157393878087,8.400415870518152
1840.0,7.196545652092466,9.21437001236372
1841.0,8.089824285339628,9.934373946274025
1842.0,6.960465138061519,10.122544115994154
1843.0,7.350226668165299,8.47229684163201
1844.0,8.803454347907534,8.550222921584055
1845.0,8.87064928252969,9.124442696039864
1846.0,8.938012813307855,10.14351279457495
1847.0,7.883061706193098,9.642493724476417
1848.0,10.20392267056311,9.961136712749616
1849.0,9.21730920535012,8.756963021243115
1850.0,8.11652242328875,8.552360346184106
1851.0,8.274390243902438,11.24478756884343
1852.0,6.066227380015736,11.229248623131394
1853.0,5.315851785245963,12.614873927541119
1854.0,5.660649368989258,10.75084917704902
1855.0,5.516241285596124,10.762678719130331
1856.0,6.813805143191452,9.060391287181217
1857.0,7.9146214656049425,8.688298562177398
1858.0,6.2967322606583025,8.287060749373888
1859.0,7.6709349593495935,7.589176126784309
1860.0,7.569780075680941,8.451500505788468
1861.0,6.649956914315687,8.837079914577947
1862.0,5.394102881120977,9.08789479599865
1863.0,5.819002660072684,9.15960436102057
1864.0,6.94707665793425,8.57023110642308
1865.0,6.889590556309674,6.172903571644721
1866.0,5.768162705377497,6.1108420297247985
1867.0,8.681203978292885,6.0020415985797575
1868.0,6.743906473804192,8.555938187173435
1869.0,8.183202202989772,8.007828481510622
1870.0,7.065302911093626,7.842643587726199
1871.0,8.03933910306845,9.562549173878836
1872.0,10.275059008654603,11.471597167584578
1873.0,8.852852084972463,10.770476003147127
1874.0,10.024940991345396,9.783949645948072
1875.0,9.020544378254844,9.722404555842793
1876.0,8.03033513169233,12.285277808999288
1877.0,8.572415795586526,13.84871679592372
1878.0,7.547075793338578,12.402008167547113
1879.0,7.294781012326252,10.251751526731857
1880.0,6.880259263422127,8.495897493537147
1881.0,6.370814132104455,8.69421153197707
1882.0,5.320576224195422,8.899662807687985
1883.0,7.354681353265145,9.125177025963808
1884.0,7.3760031471282455,9.882415420928403
1885.0,7.544256490952006,10.547187254130606
1886.0,5.3930959874114865,9.849803304484658
1887.0,5.583477576711251,9.130527143981118
1888.0,5.738512981904012,10.164802742497471
1889.0,7.214575137686861,10.189482409801055
1890.0,7.186723052714398,11.019337979094075
1891.0,8.096774193548388,12.147296841632011
1892.0,7.207553107789142,11.485922220973361
1893.0,7.296144767899292,12.537273800157354
1894.0,6.227675059008655,13.430232100708103
1895.0,6.045730770671762,11.968322655576786
1896.0,7.575973174478289,9.813036229440636
1897.0,6.745382338616013,8.346034243752575
1898.0,8.0223296242179,9.743096924056797
1899.0,8.132643962384323,9.481304559589375
1900.0,6.9001161440185825,9.667303585478251
1901.0,8.96783934659623,10.436405529953916
1902.0,7.689150859143357,7.169815668202765
1903.0,7.5069882855329215,6.752253928866832
1904.0,9.098045676991479,5.893682039177712
1905.0,9.051038967527997,8.568211987330791
1906.0,10.064632386989805,8.595396316246042
1907.0,8.85174605095927,8.5428594484456
1908.0,7.491660110149489,5.8284815106215575
1909.0,7.036546026750589,7.413060582218726
1910.0,7.577489603237046,6.8684350530141245
1911.0,7.109722378329774,6.969740736577872
1912.0,7.1434940616687275,7.638979431268968
1913.0,8.055936457982092,6.901202652579521
1914.0,10.163688134577198,5.623693379790941
1915.0,7.092443145629613,4.500940391892398
1916.0,5.644744170944014,4.572876000649408
1917.0,6.41193843310287,4.891867517044543
1918.0,7.656276436213494,5.199620394466971
1919.0,6.87172594430659,6.95323269920044
1920.0,6.26428547412025,9.563762297672604
1921.0,7.076049547095967,6.3315227258972335
1922.0,6.493194335169157,5.634992132179386
1923.0,10.391797797010227,5.6866837136113295
1924.0,11.004366640440598,6.29213217938631
1925.0,12.521380802517701,8.07667191188041
1926.0,11.222844779139034,8.178005694803492
1927.0,9.872543919952113,7.41801635077759
1928.0,9.55028042724967,8.962183402993606
1929.0,10.05182813560533,9.566294252134462
1930.0,11.464258921873325,8.174525774300719
1931.0,10.193727003179365,6.979351980852355
1932.0,7.402875980319122,7.776540389452763
1933.0,6.72432585498291,6.624445309933755
1934.0,6.585043647671499,7.278839309130419
1935.0,5.342445018920235,6.818759132291783
1936.0,6.759087332808811,5.560070810385523
1937.0,8.304761904761904,5.678072196620583
1938.0,7.338789292270802,5.580725712787082
1939.0,7.6407656138773365,8.14520156607096
1940.0,7.601903263272264,9.735317148102355
1941.0,6.186396163500805,8.964295080738825
1942.0,6.0207710464201405,7.4324547600314705
1943.0,5.243194335169157,6.4019079464988184
1944.0,5.978048780487805,6.577970102281668
1945.0,5.8647128245476,7.489614476789929
1946.0,7.561782061369,7.68068450039339
1947.0,7.89097167584579,7.693568056648308
1948.0,7.162824547600314,7.3858969315499605
1949.0,8.105114083398899,7.396380802517703
1950.0,9.321636506687646,7.413375295043274
1951.0,6.965302911093627,9.528009441384736
1952.0,7.131845003933909,9.079327301337528
1953.0,6.877491980875144,10.92428937440739
1954.0,13.397203897597286,10.001011721035324
1955.0,12.233014297530426,10.09057367363819
1956.0,10.130216826184567,9.633593288432
1957.0,8.172769703414865,9.336151482925677
1958.0,6.686215390955752,11.38869750103031
1959.0,7.458538458656476,10.042883368925855
1960.0,8.17043666404406,8.084421715184893
1961.0,7.015460267505901,7.763985051140834
1962.0,6.868764752163651,8.734067663257278
1963.0,6.936900078678206,8.137765538945711
1964.0,7.056176239181746,8.271479150275374
1965.0,5.73212037765539,9.222029897718333
1966.0,5.6658536585365855,8.014830841856806
1967.0,4.715527705968304,8.975663144880297
1968.0,6.563527031583679,9.47417106889963
1969.0,6.664926379678542,8.8059289648196
1970.0,6.123592222097336,9.0279644824098
1971.0,6.06809036753962,10.429639204226145
1972.0,5.023446105428796,9.841778127458694
1973.0,6.892918961447679,9.212785208497246
1974.0,7.27258064516129,10.307258064516128
1975.0,8.075806451612904,9.481451612903225
1976.0,5.708870967741936,9.404032258064516
1977.0,6.9571203776553885,9.965479937057435
1978.0,6.87092991587484,12.929648570679255
1979.0,8.667319796647098,10.46321138211382
1980.0,6.863095382194516,9.543299239444007
1981.0,5.9956605943230645,10.181327039076843
1982.0,6.390198511166252,10.340860215053763
1983.0,6.508752950432729,10.330802517702597
1984.0,5.806156569630213,10.447816679779702
1985.0,8.220082612116443,9.440420928402832
1986.0,9.214653815892998,10.324547600314713
1987.0,9.142407553107788,10.915499606608968
1988.0,7.006136900078678,11.262785208497245
1989.0,5.508418568056648,9.578363493312352
1990.0,7.811250983477576,9.504681353265145
1991.0,7.691935483870967,8.984677419354838
1992.0,5.804032258064516,8.668548387096774
1993.0,8.966973886328724,8.424078341013825
1994.0,9.208900508094057,8.6756351175706
1995.0,10.49275670565993,10.405559494269172
1996.0,7.845571901217062,10.497134585844265
1997.0,6.953834337705305,10.33650985783165
1998.0,6.730066170388751,12.51848534366237
1999.0,6.110680566483083,11.742800944138473
2000.0,7.964575137686861,9.85643194335169
2001.0,7.711526357199056,9.642800944138473
2002.0,8.0264948859166,10.725806451612904
2003.0,10.753737214791503,9.446892210857591
2004.0,10.783162863886703,9.55405192761605
2005.0,11.121422663358146,10.178264641207207
2006.0,8.4737719138978,11.11714176198834
2007.0,8.090623171740402,10.104440275171982
2008.0,8.024855252274607,9.910835401157982
2009.0,7.685814722911497,9.495740281224151
2010.0,7.913788355625492,8.31378835562549
2011.0,10.370397324940992,7.8913650668764745
2012.0,12.596085759244689,6.726730920535012
2013.0,12.747639653815892,8.691188040912667
2014.0,13.673013375295042,10.998819826907946
2015.0,11.03398898505114,9.750786782061368
2016.0,9.000247274362145,9.471549398673709
2017.0,8.645442283915926,9.012456445993031
2018.0,7.5663285377093406,8.212119253681015
2019.0,7.053613577610431,9.165449027762167
2020.0,7.804383500056199,8.394604923007755
2021.0,11.184833839121803,7.969959911580682
2022.0,11.778097486043984,7.125892622981529
2023.0,8.98125960061444,6.990168970814132
2024.0,7.62901914503016,6.565585777977596
2025.0,8.069997377393129,7.7793900565733765
2026.0,7.995790715971675,10.212509834775767
2027.0,6.7809598741148704,8.887706530291108
2028.0,6.067745682065116,8.498864785882882
2029.0,8.31302311640628,7.374137349668428
2030.0,6.586960023978119,8.381403843992357
2031.0,7.949577572964669,8.944124423963133
2032.0,7.330896182233712,10.884129481847813
2033.0,8.636723052714398,9.750590086546026
2034.0,9.02197088906373,11.559697088906372
2035.0,7.859314937619423,10.986549773331834
2036.0,5.567629538046533,11.947405492488105
2037.0,7.648488254467798,13.045693304859316
2038.0,7.417556479712262,13.194522498220374
2039.0,7.943632685174778,11.223933160990597
2040.0,7.2195121951219505,12.425177025963809
2041.0,11.076475216365065,10.14799370574351
2042.0,13.060267505900864,10.7433910306845
2043.0,12.64516129032258,10.991129032258065
2044.0,10.26290322580645,12.41532258064516
2045.0,11.86532258064516,10.647580645161291
2046.0,13.316628264208909,10.109869431643624
2047.0,8.715168970814133,11.399692780337942
2048.0,6.4337941628264215,14.317588325652842
2049.0,7.592703533026113,15.260407066052228
2050.0,7.427803379416282,14.065284178187405
2051.0,8.030645161290323,10.491935483870968
2052.0,7.367623918174665,9.611565696302124
2053.0,7.006392604248623,7.563040912667192
2054.0,6.47183320220299,6.316089693154996
2055.0,7.081136900078678,5.998819826907947
2056.0,8.104834963096174,7.015538945712038
2057.0,8.809931250234161,8.384323367427221
2058.0,7.5763365928590165,6.7683713611329654
2059.0,7.458742647334308,6.4710464201416205
2060.0,5.977188940092166,5.585791090629801
2061.0,4.893125960061444,9.489669738863286
2062.0,5.404224270353303,10.110560675883256
2063.0,5.88529466861489,12.625628489003784
2064.0,6.6518133453223935,8.353667903038478
2065.0,5.032435090479938,7.261703383162864
2066.0,5.613394964594807,7.198190401258851
2067.0,5.4034618410700235,10.136191974822975
2068.0,5.863571990558615,6.996656176239181
2069.0,9.15131836430027,8.751550868486353
2070.0,6.723003792693014,6.882807298916662
2071.0,7.563786842583067,6.711182392220945
2072.0,5.447511045209708,4.455119126873651
2073.0,4.324965200024209,4.108204724727148
2074.0,3.9643849986886965,3.191075067078214
2075.0,6.158510359297141,3.23023462244548
2076.0,6.8158143194335175,5.018922108575924
2077.0,6.940322580645161,6.042741935483871
2078.0,6.926612903225806,8.263709677419355
2079.0,6.833064516129031,7.020161290322581
2080.0,5.309677419354839,5.185483870967742
2081.0,6.587372147915028,5.151829268292683
2082.0,5.413847364280095,7.6642210857592445
2083.0,7.414450563860478,5.730900865460267
2084.0,8.206418830317336,5.406176239181746
2085.0,5.60119328612641,6.236152635719905
2086.0,7.151344086021505,5.757258064516129
2087.0,10.517715709415159,5.9387883556254915
2088.0,10.848682140047206,6.681431943351692
2089.0,8.758116031621144,5.507305833426997
2090.0,9.194783822262185,6.177040013487692
2091.0,7.369914952605749,6.579476227942003
2092.0,7.985114832715147,6.17250758682702
2093.0,7.387364654752538,5.84565583904687
2094.0,6.073009988961996,5.65817590487142
2095.0,4.6909404783519655,7.45408795243571
2096.0,5.08087730522821,8.506229844113399
2097.0,4.72179191775966,7.437300602623183
2098.0,6.042750797589507,6.751311591634172
2099.0,7.7776141770634295,8.549978457157843
2100.0,6.198995916226443,7.6517889925443034
2101.0,5.707946498819826,6.924665617623917
2102.0,5.426553894571203,10.908300550747441
2103.0,6.826986624704956,8.543666404405979
2104.0,7.959205350118016,9.049331235247836
2105.0,6.78841463414634,11.41372934697089
2106.0,7.124252557041699,15.373937844217151
2107.0,5.101584803866472,13.140789966655426
2108.0,5.024356524671237,10.398414259488217
2109.0,5.097111385860403,10.420066689146154
2110.0,5.379004158705182,13.022779213967254
2111.0,4.905788468022929,12.064182683301487
2112.0,9.679622344610543,8.292997639653816
2113.0,10.878194897156344,8.079060357423849
2114.0,10.618247723951892,10.16832640215803
2115.0,8.650115207373272,8.72995391705069
2116.0,8.532168146566258,10.400637855456896
2117.0,7.6638567307332055,12.36220448840433
2118.0,6.956813157993331,12.286632198119214
2119.0,8.320342062867633,11.017509647446705
2120.0,8.065816192724139,10.019238694691094
2121.0,6.170122887864823,9.163671274961597
2122.0,6.8361248966087675,8.047952853598016
2123.0,6.024110835401158,7.635669975186104
2124.0,7.034990114789485,8.669595412455365
2125.0,8.452674050313703,10.370999515826425
2126.0,9.669137969295326,11.39422320401864
2127.0,9.642840283241544,10.484952793076317
2128.0,10.904484657749803,10.8654602675059
2129.0,12.650668764752162,7.856805664830842
2130.0,12.23170731707317,12.083634933123523
2131.0,10.269201228878648,13.75752688172043
2132.0,10.128955453149,11.03521505376344
2133.0,8.136251920122888,12.1252688172043
2134.0,8.607142857142856,11.683986175115209
2135.0,6.978571428571428,9.852073732718894
2136.0,5.018625192012289,8.343241167434716
2137.0,4.49234609476545,8.774742998936546
2138.0,4.492544015124659,8.846242467210208
2139.0,6.535980148883374,8.528804797353185
2140.0,6.4011332687768565,8.423617583570376
2141.0,8.121013133208255,6.954885109645141
2142.0,8.965971675845791,7.87383949645948
2143.0,11.71093627065303,8.499055861526356
2144.0,14.19417781274587,12.205979543666404
2145.0,9.951219512195122,11.90432730133753
2146.0,9.142800944138473,14.133831628638866
2147.0,6.932140047206923,11.686191974822972
2148.0,10.778422501966954,9.585818253343824
2149.0,12.324291896144768,9.069118804091266
2150.0,10.056904012588513,7.497462627852084
2151.0,7.977242328874901,6.496715184893784
2152.0,10.279779701022816,10.086191974822974
2153.0,9.575878068954387,10.678361980269926
2154.0,8.55003580867074,8.217003570780124
2155.0,7.389130807561177,8.074630817648128
2156.0,9.443355726361233,6.936912183017611
2157.0,9.885328531945369,5.591587484113054
2158.0,10.154586752088719,8.809441384736427
2159.0,9.413526094938367,9.361057097898168
2160.0,7.060313401521112,7.939822412049005
2161.0,8.0786782061369,8.595256828144318
2162.0,5.7600314712824545,9.045858154434079
2163.0,5.564193923045221,10.187445206249297
2164.0,7.7642841291936495,10.53390339007963
2165.0,7.495753394258509,10.554677894882458
2166.0,6.772332506203474,10.7443502995824
2167.0,7.920705985595836,10.215054772135812
2168.0,9.082884464080372,10.098341705501422
2169.0,8.497521636506688,10.009716758457905
2170.0,6.296264658499119,9.653514293207447
2171.0,6.236094563710614,9.296466037241016
2172.0,6.406756959274661,8.62121688958825
2173.0,5.672772657450077,8.316666666666666
2174.0,7.780928028174291,7.724049305009178
2175.0,7.977084972462627,9.17490165224233
2176.0,10.057317073170731,7.639771833202203
2177.0,6.604964220149114,6.455830617061931
2178.0,6.722528193023866,8.787381514368139
2179.0,6.3732344235884755,7.816417519013899
2180.0,6.455696676782436,6.997901914503016
2181.0,6.333277134614664,5.954497770784158
2182.0,5.320478813083062,6.542456258663969
2183.0,5.415308530965493,6.641811846689896
2184.0,5.42840283241542,6.067899291896144
2185.0,6.560778914240755,5.613414634146341
2186.0,4.841837136113297,8.468784421715185
2187.0,5.242289535798584,9.578343823760818
2188.0,6.685837922895358,11.24948859166011
2189.0,5.525767112509834,9.948347757671126
2190.0,5.374842643587726,10.61941384736428
2191.0,5.56852871754524,9.120830055074745
2192.0,6.539103068450039,9.744689221085759
2193.0,7.152635719905586,10.331510621557829
2194.0,7.776317859952794,10.718174665617624
2195.0,7.667348544453187,8.528599527930762
2196.0,8.142014162077105,8.629917387883555
2197.0,6.9247321194410105,6.752842718519351
2198.0,7.138693754449065,6.799719943051965
2199.0,7.8487823610955,7.234940616687273
2200.0,7.274587876063093,6.80315087482672
2201.0,7.306245550934772,7.596736727735941
2202.0,7.198898505114084,7.329858379228954
2203.0,8.088040912667191,9.683025177025964
2204.0,8.177084972462628,11.077399685287176
2205.0,8.62523603461841,11.490952006294258
2206.0,9.047737064928253,10.046244052302274
2207.0,7.726287887302837,8.406992993893073
2208.0,5.912711213517665,7.702237645648347
2209.0,10.35837173579109,10.929747855082237
2210.0,10.409319620845977,14.125377468060393
2211.0,9.975078678206136,13.356785995279306
2212.0,8.056215578284815,11.94441384736428
2213.0,7.228376606346708,12.714027200179835
2214.0,7.759506949908209,11.882544677981343
2215.0,7.115769360458581,11.07178449664681
2216.0,6.47566595481623,8.318347008354877
2217.0,8.088243516252957,10.687638875679788
2218.0,8.01939057533078,9.826307917102568
2219.0,7.795375854148474,10.307567805915564
2220.0,6.837733260707297,11.065064859085314
2221.0,7.619653412415016,9.955427787528496
2222.0,6.8293469708890635,8.368450039339102
2223.0,5.486946910943764,8.879232700161102
2224.0,6.014441197407366,8.446067962983776
2225.0,6.137826420890937,8.71689708141321
2226.0,4.741090629800307,9.675384024577571
2227.0,5.963659458820749,8.589542715349166
2228.0,5.609863523573201,9.0595947063689
2229.0,5.97189674998487,8.76736619661482
2230.0,7.579458359631451,7.665883559136903
2231.0,7.2706497148275275,9.213911488459088
2232.0,6.553771870668015,7.82215072496347
2233.0,6.870031096624331,7.963897943126896
2234.0,7.526282267430969,9.187377767786895
2235.0,7.6035405192761605,10.589771833202203
2236.0,5.365499606608969,9.955389457120377
2237.0,5.735070810385523,10.513099921321793
2238.0,7.720357985837923,9.886388670338317
2239.0,11.045259638080251,10.69883949645948
2240.0,9.613086808287438,7.800783035480124
2241.0,9.27349855756622,6.569156269903712
2242.0,7.531949908208759,7.895435727398748
2243.0,7.355977021929028,7.954427954683659
2244.0,7.188147834331941,8.462471648466927
2245.0,5.846378064631407,8.670943965554509
2246.0,5.098248040970307,9.282757584665532
2247.0,4.633388379257774,11.062985794693112
2248.0,7.386122663069949,8.611704319808176
2249.0,7.287437713086808,7.969427897043948
2250.0,9.611704319808174,12.076280394140348
2251.0,7.894758532838784,10.667880558989921
2252.0,8.472871005207748,11.851170806638942
2253.0,6.39693904312315,10.728496496946537
2254.0,6.56951219512195,13.956451612903226
2255.0,6.799154209284028,13.19836742722266
2256.0,6.836270653029111,10.746361132966168
2257.0,7.700393391030683,9.588906372934694
2258.0,9.135526956652054,10.429245813195458
2259.0,7.878149001536098,10.606912442396313
2260.0,8.687864823348695,11.036520737327189
2261.0,7.497964669738864,10.571082949308757
2262.0,6.1139016897081415,10.1536866359447
2263.0,7.5598544453186465,10.762214791502753
2264.0,16.65182926829268,13.776868607395752
2265.0,13.889083398898503,14.104996066089694
2266.0,11.807195309280281,10.097774530740699
2267.0,8.5570791652617,10.179611104866808
2268.0,10.141808100108651,9.20756060095163
2269.0,9.116930800644411,8.813300363418382
2270.0,9.699965127974568,9.521903666750244
2271.0,7.9464495378736135,8.183302063789869
2272.0,7.450408089157106,7.526741511831991
2273.0,10.574394783029717,12.705280013718252
2274.0,8.115826423772923,14.32884968427848
2275.0,8.007789142407553,12.094118804091266
2276.0,8.358615263571991,10.745790715971676
2277.0,6.945397324940991,8.86038552321007
2278.0,6.543115656963021,7.5659126671911885
2279.0,6.9931353265145555,9.24451219512195
2280.0,5.739674422089843,9.845470383275261
2281.0,6.935140122138548,10.399525120827246
2282.0,5.6228119965531445,13.525972237832978
2283.0,5.645603386909444,10.44107751676595
2284.0,6.077325690307594,10.656416020381403
2285.0,6.749492338241355,10.321295567794387
2286.0,7.888514855194634,8.937595069499082
2287.0,10.454741298565057,9.134120115394703
2288.0,8.258169420403881,10.293941778127458
2289.0,7.14560713349069,9.478206136900077
2290.0,8.640391892398187,8.743711363380914
2291.0,10.342776591360384,9.874137349668427
2292.0,9.507678618260837,9.750778352253569
2293.0,10.21079015398449,9.559087332808812
2294.0,9.549769585253458,9.95483870967742
2295.0,8.148310291858678,10.382718894009216
2296.0,9.623348694316437,12.512327188940091
2297.0,11.624577572964668,13.352534562211982
2298.0,9.150904799370574,12.579268292682928
2299.0,8.487018095987413,12.80800550747443
2300.0,7.091325727773406,11.077596380802518
2301.0,5.258700498295306,11.412050878573302
2302.0,5.458431681091005,11.370836611591923
2303.0,4.847626540781537,11.551271964332546
2304.0,4.813270390768423,10.895777602937319
2305.0,7.878311041174928,10.48290060319958
2306.0,6.976789929189614,12.160267505900865
2307.0,5.444807238394965,11.560542879622343
2308.0,4.994236821400472,10.915991345397323
2309.0,5.915263571990559,13.343076317859952
2310.0,11.080527143981119,12.303009441384734
2311.0,12.253874901652242,9.756235247836349
2312.0,9.31066089693155,8.263650668764752
2313.0,8.459744497569044,10.06633077124816
2314.0,9.656081926203877,8.52348796626924
2315.0,7.3558635437471,10.067792370231395
2316.0,7.568962456373943,10.730198309427262
2317.0,9.4233482620186,9.835988218442978
2318.0,6.8312549173878825,12.179740361919748
2319.0,6.16317859952793,11.902124311565697
2320.0,8.533438237608182,11.542092840283242
2321.0,8.431156569630211,9.982690794649882
2322.0,7.485444531864673,8.926829268292682
2323.0,6.60582218725413,8.082612116443745
2324.0,9.008170429098833,7.376283564324476
2325.0,7.07528899110331,6.717646109463576
2326.0,6.60098045149186,9.024834069680647
2327.0,6.8959268897899895,9.6236680183179
2328.0,6.377546450402469,9.23590954023684
2329.0,8.609520062942565,8.09567269866247
2330.0,14.193194335169157,8.153973249409912
2331.0,12.00312745869394,8.153697875688433
2332.0,9.385444531864673,10.106687647521635
2333.0,6.856372934697088,11.569394177812747
2334.0,7.4702793076317855,11.211526357199055
2335.0,7.13705743509048,10.950314712824547
2336.0,5.275177025963808,10.541148701809597
2337.0,5.831451612903226,9.902832415420928
2338.0,5.536405529953917,10.211861676220447
2339.0,5.126739350342812,9.461871042673561
2340.0,6.6205912105204,8.511884155707916
2341.0,7.071428571428571,7.745084485407066
2342.0,10.05184331797235,8.495929339477726
2343.0,9.85134033944026,11.06369843767562
2344.0,9.222041137462064,11.8419298639991
2345.0,8.648347757671125,10.894236821400472
2346.0,7.9854642014162085,10.416876475216364
2347.0,8.861146079202728,8.54926005020419
2348.0,7.115860215053764,6.520814132104455
2349.0,5.30510752688172,4.981374807987711
2350.0,16.432618672960924,5.428187403993856
2351.0,15.72680304222397,8.673240043460343
2352.0,11.452879247686486,6.820490989472106
2353.0,11.265994155333258,7.425395264321306
2354.0,12.175776522527844,8.321784278822319
2355.0,9.905111295245412,7.664732385186889
2356.0,9.183082791603823,5.680517254749227
2357.0,8.689467663083018,4.184728673457562
2358.0,7.929219238607561,5.331611648556738
2359.0,8.83147877561725,5.327132741373497
2360.0,8.321576561387733,5.415563298490127
2361.0,6.317908658349257,6.785987786145142
2362.0,5.834472294031697,5.828384099509197
2363.0,6.464240755310779,4.421872541306058
2364.0,6.963434303697875,4.880094413847364
2365.0,7.006176239181746,4.566109362706531
2366.0,6.339260424862313,4.4573170731707314
2367.0,5.0802497528697375,6.690449171861446
2368.0,4.877221650628417,5.333531037543626
2369.0,9.517052996832696,4.980612883051908
2370.0,6.570485585749157,5.454901248764349
2371.0,7.542756561560653,4.978040710928201
2372.0,10.185120452587014,5.2473211944101
2373.0,9.78399647821363,4.8087988460529765
2374.0,8.430963620696115,3.7896669289273532
2375.0,16.530100970364543,12.208628376606345
2376.0,14.864647259375818,17.46399160765801
2377.0,12.791232999887601,14.796204713199206
2378.0,11.34338915739388,24.721374246000526
2379.0,10.060758308043908,68.87524259113559
2380.0,6.327230152485857,50.37041699449252
2381.0,5.6111957214042185,38.995692368214
2382.0,6.03825915102469,22.97002360346184
2383.0,6.214694091641377,19.420726087445203
2384.0,7.069738863287251,22.458986175115207
2385.0,13.056451612903226,25.805299539170505
2386.0,19.09032258064516,29.027649769585253
2387.0,19.47175452399685,41.51496571878161
2388.0,14.490204563335954,40.43271046420141
2389.0,11.909503203326963,35.73814862687797
2390.0,11.765085435121847,24.179398769553018
2391.0,7.332542717560923,21.99776390090554
2392.0,7.004351610550721,23.080549928422872
2393.0,11.23972778909013,15.906390883435144
2394.0,15.031384631872253,22.91202800700175
2395.0,15.905414746543778,21.605376344086018
2396.0,14.982378891761268,23.959179124049303
2397.0,13.103651043422875,16.859735491364127
2398.0,11.340686935671199,21.580011989059983
2399.0,10.597359596867857,18.526296317110635
