time,emg_right_hand,emg_left_hand
0.0,6.048780487804878,4.390243902439025
1.0,7.593495934959348,3.5609756097560976
2.0,6.574083291853326,3.4853160776505723
3.0,7.881238869531552,4.799814169570267
4.0,8.755438162676558,8.09023266269529
5.0,10.775830804390994,8.619467236147015
6.0,10.438850174216027,7.122273425499231
7.0,9.806893382753355,6.026467331118494
8.0,6.650355293527214,5.100888752407882
9.0,8.4610647435378,4.099234698784587
10.0,9.717550467756311,4.799814044907635
11.0,11.070310260491953,5.08312246917264
12.0,8.158341414621948,7.007244728630562
13.0,7.242690245732165,6.645454961301301
14.0,16.4753773809306,5.759017803231295
15.0,24.969246144288682,5.185342328613512
16.0,36.50664643512795,4.582829418155933
17.0,34.965548312165154,4.926666292008543
18.0,36.68774961597542,4.808486943164363
19.0,28.70199692780338,5.9884792626728105
20.0,20.02813203300825,4.503750937734433
21.0,16.13887400421534,4.435823241524666
22.0,13.59398778265995,4.207641196013289
23.0,15.459436287643339,3.846140106455185
24.0,14.391062051227092,4.509305897903047
25.0,14.13138999035473,4.425695709641696
26.0,20.25709284463973,4.478055228092737
27.0,20.09003679491301,11.67336834208552
28.0,16.489147286821705,10.893126853141856
29.0,18.459073696995677,9.638665023398707
30.0,16.81160919585297,8.539082571165439
31.0,12.44318658061728,7.167446478344324
32.0,11.65554106296609,6.862909107067708
33.0,12.110966330432781,5.8163007650867415
34.0,13.546912860619337,4.952322575417373
35.0,15.001623228106677,5.429347755057231
36.0,13.378860394541142,4.938119982957412
37.0,12.375953744533692,6.385632993614257
38.0,11.490427484920009,5.583342699786445
39.0,11.927953242666067,5.119928065640104
40.0,10.270653029110935,4.8602899853883335
41.0,8.75223683969773,4.338256166829164
42.0,8.897974493623405,3.8436930661236737
43.0,8.565730718393883,3.35617833029686
44.0,8.391697924481122,3.0354624370378307
45.0,7.12576001143143,4.035494587932697
46.0,10.424006001500373,3.872907512592434
47.0,12.605485517720894,4.762959163135731
48.0,12.282862101883016,4.094376899303893
49.0,9.54223750255441,4.621785223845494
50.0,10.41395803252609,4.024035183279873
51.0,11.547468319773591,3.9788603476251
52.0,10.686480029280974,3.409021047140638
53.0,8.958624630025103,3.288216065340377
54.0,9.240582968041661,3.1861713686261286
55.0,9.803658536585367,3.4127065302911097
56.0,9.027321007081039,4.362136113296617
57.0,8.649547600314712,3.991955153422502
58.0,7.765789102059754,5.372394036595453
59.0,8.362910286671104,4.983836672113619
60.0,7.211352861667574,4.120163812059957
61.0,7.0445434646654155,5.136399765982771
62.0,8.794449151687546,4.419812786217192
63.0,8.855605822187254,3.789653815892997
64.0,9.57336742722266,3.924665617623918
65.0,8.979445318646734,3.936369000786782
66.0,8.016738788355624,3.3403619197482297
67.0,7.723288749016522,3.352439024390244
68.0,9.628520849724627,3.688021243115657
69.0,7.970691359519053,3.5516512336339243
70.0,6.6641025641025635,2.925392886683209
71.0,8.315115798180315,2.836083540115798
72.0,7.249090157154672,3.170057899090157
73.0,10.388726825233512,3.005957352377494
74.0,8.9228166797797,3.912077104642014
75.0,7.7283438237608175,4.550393391030684
76.0,7.421026750590086,4.99213217938631
77.0,5.8508654602675065,4.3404799370574345
78.0,6.9018292682926825,4.846400472069237
79.0,7.473422905444935,3.4313784825193165
80.0,7.072732958098811,4.644183864915572
81.0,7.322676471181584,4.4262028687284385
82.0,8.052144125216508,4.353392169068801
83.0,5.74553508385137,4.294605211206313
84.0,5.890449964407478,4.2030834363643175
85.0,5.9470608070135995,3.895732643962384
86.0,8.116095313026863,3.64715821812596
87.0,5.517387883556254,3.9200629425649094
88.0,7.245318646734853,4.824311565696302
89.0,7.049095200629425,4.197364280094414
90.0,7.54317819604995,5.586406322499949
91.0,6.381266517379814,6.647638645120942
92.0,5.114866146180072,6.494865742702093
93.0,8.822972018802073,5.761594948455688
94.0,7.398110714357764,5.455227057233351
95.0,8.899468922108575,4.9780684500393395
96.0,8.8404602675059,4.353953579858379
97.0,7.4553107789142405,4.102517702596381
98.0,6.85078678206137,3.8329268292682928
99.0,7.341522423288749,3.834205350118017
100.0,6.47197088906373,4.875570416994492
101.0,8.308969315499606,4.414398111723052
102.0,7.314238882020156,5.523279382563411
103.0,7.543822824172942,5.070058259338353
104.0,6.833604960473568,4.704787194185306
105.0,11.360926904199916,4.408173166985126
106.0,10.716616087819862,4.381132216852123
107.0,14.50999775205125,4.382962421790117
108.0,10.962551983814768,3.923975310029598
109.0,8.761095500355925,4.313120527518639
110.0,7.755202128058147,3.831291446555019
111.0,8.824807987711214,3.974654377880184
112.0,8.02000768049155,3.812288786482335
113.0,6.690245775729647,3.3206605222734256
114.0,6.990892997639653,3.888375295043273
115.0,6.104720692368214,4.070397324940991
116.0,6.118489378442171,3.6718922108575924
117.0,6.731018882769472,3.970220298977183
118.0,5.244215278558316,6.055885879135289
119.0,6.168134389869244,6.1282576523921914
120.0,7.773180098160429,5.279854632647709
121.0,9.192235210370537,4.57379828406579
122.0,7.788348132329249,5.340301974448316
123.0,9.780502791203027,4.6183076692518075
124.0,10.207418230864334,3.991893334831966
125.0,7.608893447229403,4.222578771870668
126.0,7.412049005282679,3.9878236109550036
127.0,8.100258514105878,3.641358510359297
128.0,10.59911580682627,3.744764152710651
129.0,9.51062155782848,5.731726049979393
130.0,8.474092390693492,4.304671986812034
131.0,11.722490727211419,3.552021280581469
132.0,8.456176239181747,3.605350118017309
133.0,7.33375295043273,3.598583792289536
134.0,7.839653815892998,4.01243115656963
135.0,6.507553107789143,4.363414634146341
136.0,7.041974822974035,4.22639653815893
137.0,8.390342250196696,4.712391817466562
138.0,10.599803304484656,4.866188040912667
139.0,9.004720692368213,4.210621557828482
140.0,9.365066876475217,4.233162863886704
141.0,8.884270410942323,4.301052068833343
142.0,8.751812624826,3.8223002279650586
143.0,8.662845730194274,5.01799511791644
144.0,7.50483337800411,4.048711320151131
145.0,9.693052109181142,3.725097483161999
146.0,9.098387096774193,3.9470814132104453
147.0,9.042250196695516,4.839237008729534
148.0,8.202615113708742,4.175628489003784
149.0,7.988947585328388,3.6618092240830244
150.0,6.810449215091229,4.330443782548425
151.0,6.700385897868195,4.252721891274213
152.0,6.15113708740774,4.049256303622943
153.0,7.286585365853658,4.345869394177813
154.0,9.931490952006294,4.8705743509048
155.0,10.175019669551535,4.600609756097561
156.0,8.65609756097561,5.606687647521636
157.0,8.16840695365479,5.517667003858978
158.0,7.800961934734554,4.900060881945225
159.0,6.884971525982541,4.516779064104005
160.0,8.752763103667903,4.957701097748305
161.0,8.906672661196657,5.633846614963845
162.0,9.5531827207673,5.151024689970402
163.0,8.965891124349032,4.932081975197632
164.0,8.667288599153274,5.998771121351766
165.0,8.216020381401972,5.543838747143232
166.0,7.1087782398561306,6.049447379266419
167.0,6.561685586901952,5.136474841706942
168.0,6.630036341838073,4.531140646659923
169.0,6.860220817734587,5.024865195124834
170.0,6.727514028064775,4.318490819434958
171.0,7.205651285509664,4.4328676044647715
172.0,7.242535657366499,4.451775303112832
173.0,7.477778450241077,4.264459642115032
174.0,19.574763028736278,4.721441684462928
175.0,30.23951893896819,4.771758270578097
176.0,23.383724851073396,4.750237907909033
177.0,14.495560301225131,4.443175602262935
178.0,9.14966842755985,3.859117305458769
179.0,7.311618148439549,4.502017534000225
180.0,5.5145766507292855,4.211867800439791
181.0,6.3274496156872235,5.30714357763925
182.0,6.421002541911275,4.021785793540317
183.0,7.4974252340892775,4.48915710567953
184.0,8.229829847571784,4.440093895089962
185.0,7.752880184331797,4.440228916114046
186.0,8.427649769585255,4.2854370387021845
187.0,8.578104979206474,5.043583979618598
188.0,10.678453411262222,5.305970177213292
189.0,10.873451725300663,5.355974860439848
190.0,8.773745831928366,4.720287737439586
191.0,8.936420516278895,4.885635607508149
192.0,6.9212046042869595,4.523307438357847
193.0,9.179880335937643,4.998596883541443
194.0,8.578419430641631,3.469440530864423
195.0,8.499158761815888,3.7835382190495355
196.0,7.801769257645422,4.833772031858139
197.0,7.789142407553108,4.782173766438126
198.0,9.954632647708966,4.341470907796635
199.0,11.530341255911672,4.6521841127663315
200.0,7.797979439914924,6.324518492260427
201.0,7.047914451140258,5.725853716176297
202.0,7.750147701760605,4.519608885737918
203.0,8.092815786364174,4.725127023514121
204.0,8.356833764190176,4.398856356075081
205.0,12.05402663819265,4.8670619309879735
206.0,9.109890974485781,4.5660447341800605
207.0,7.9415814319433515,5.299842643587726
208.0,5.781274586939418,4.7386309992132185
209.0,5.84618410700236,4.959402045633359
210.0,5.910110149488592,4.998190401258851
211.0,7.702104642014162,4.557317073170731
212.0,7.4183910306845,4.1697875688434305
213.0,6.861211644374508,3.5268292682926825
214.0,5.514476789929189,3.073957513768686
215.0,6.423878835562549,3.429740361919748
216.0,8.30779569892473,3.6514592933947774
217.0,9.019623655913978,3.724923195084485
218.0,9.450668917229308,4.852043367984853
219.0,11.379155503161504,4.373256707033901
220.0,13.81731181924401,4.416044167836384
221.0,12.20809204914469,5.4562049920145546
222.0,9.135497637475572,5.337779915362116
223.0,8.785017421602788,4.282132554044434
224.0,7.770772919710764,4.118792851522985
225.0,7.137392754111873,4.800702483983365
226.0,5.939900153609831,4.70979262672811
227.0,5.360675883256528,3.755299539170507
228.0,5.6649769585253456,3.937941628264208
229.0,6.849385560675883,4.397748304671986
230.0,6.252980621529009,3.672592101053942
231.0,5.808345149474182,3.7092799214947125
232.0,5.187640316672574,4.001817380102195
233.0,7.204381770864854,4.351850955234118
234.0,6.750577982206621,5.091582440638302
235.0,6.831864673485445,5.1679583005507475
236.0,7.497383949645947,4.239221085759245
237.0,10.75667209485298,8.772742575887875
238.0,11.867152502411315,6.203313328332083
239.0,9.50700268708292,4.4054332180606135
240.0,10.26967954967836,4.221530535072793
241.0,8.514275258710148,3.257136235278332
242.0,7.598381476902326,2.5892473118279566
243.0,12.856963021243116,3.2370574350904797
244.0,13.720062942564908,3.6909913453973244
245.0,11.10275373721479,5.770357985837922
246.0,12.088434303697877,5.6423288749016525
247.0,9.656389794312691,5.328357873440486
248.0,6.745110711475778,4.5242104080026975
249.0,6.993188715297292,4.436731482522198
250.0,5.577868944588063,4.571080139372822
251.0,6.206416020381401,4.348744895283055
252.0,5.76104211157319,4.365847102019407
253.0,6.385762991270465,4.471230002622606
254.0,7.03379416282642,5.43010752688172
255.0,6.091129968903376,5.759585628114346
256.0,6.158084185680567,5.612588512981904
257.0,8.114929189614477,5.7804878048780495
258.0,6.578029110936271,4.997501966955153
259.0,7.898505114083398,4.4738394964594805
260.0,8.511801730920535,4.8060254392866515
261.0,9.525294106627701,4.9944681727923275
262.0,11.144201817004774,5.042732961114843
263.0,10.208736853202847,4.628336526640371
264.0,6.9822598506769555,4.907323259386275
265.0,5.629839602757832,5.402586360875933
266.0,7.718068802915014,5.598220983817383
267.0,8.002995391705069,4.93594470046083
268.0,8.650255704169945,4.414162077104642
269.0,8.176848937844216,5.384441384736428
270.0,9.526730920535012,4.945849724626278
271.0,9.895220298977183,4.521715184893784
272.0,7.480487804878049,4.407081038552321
273.0,8.915302911093626,4.507238394964594
274.0,10.915952006294255,4.654956726986624
275.0,8.614830841856804,4.034736428009442
276.0,8.000157356412274,5.2020456333595595
277.0,10.503469334232513,4.780633921546588
278.0,12.261981566820277,3.889324116743471
279.0,11.879712262560414,4.346373309355213
280.0,8.78513262897606,5.324914765276684
281.0,7.318421939979768,4.99042748492001
282.0,5.866277022217226,4.179775954441572
283.0,7.108868157806002,3.7826683151624145
284.0,6.188187029335731,3.34963470832865
285.0,7.156136900078678,4.683949645948072
286.0,8.708674272226594,4.0854051927616055
287.0,6.214417781274587,3.523347757671125
288.0,6.1955153422501965,3.2169158143194334
289.0,6.506412273800158,3.560464201416208
290.0,6.258870967741935,3.7475806451612903
291.0,7.366129032258065,4.036290322580645
292.0,6.564516129032258,4.408870967741935
293.0,5.626920122887865,4.713325652841782
294.0,14.40741167434716,4.9909370199692775
295.0,22.64120583717358,4.443855606758833
296.0,21.00214304447192,3.7764911393353566
297.0,19.81005769735117,4.380392267056311
298.0,17.72658245136197,3.5986911144162343
299.0,12.136275096648726,3.5731358797887625
300.0,8.511685935421138,3.3881808431201876
301.0,10.658675383131497,3.405734796068355
302.0,9.422655663915979,2.848412712934331
303.0,8.5321044546851,3.0612584766400657
304.0,6.585522273425499,3.033240605447529
305.0,6.723809523809524,3.993636431756023
306.0,8.778033794162827,3.5030337941628265
307.0,6.832565284178187,3.5970814132104456
308.0,8.339861751152075,6.747465437788017
309.0,10.098614701584804,8.14636206961148
310.0,11.699258176913567,10.716414709077966
311.0,10.8591189609249,8.058104203751286
312.0,9.79745502577735,6.329628138742002
313.0,7.19565344297747,4.34289844238063
314.0,7.174144581441528,4.248947254235162
315.0,6.850250890248695,4.923057419407116
316.0,5.680079427522386,3.8358997414858935
317.0,8.481667977970101,5.4958300550747445
318.0,11.72541306058222,4.6933123524783635
319.0,9.861211644374508,5.283477576711251
320.0,9.630841856805665,5.128363493312353
321.0,8.954943613952269,5.418701996927803
322.0,8.03876212955678,5.498463901689708
323.0,7.950832677681615,5.048425499231951
324.0,6.324206661421452,6.120583717357911
325.0,7.405218987673747,5.610645910606571
326.0,6.869079464988198,6.226888276947285
327.0,6.091797797010228,5.74529897718332
328.0,14.10275373721479,5.663375295043273
329.0,22.05229852759357,4.879191487767413
330.0,39.22794056528069,4.9500251805111555
331.0,31.750533169006538,4.687837137855892
332.0,22.536015994416722,4.56253579945509
333.0,14.769527848324987,4.32243828847858
334.0,10.452736274392908,4.133569374654035
335.0,7.876255609064421,5.237377335489058
336.0,9.459651913782519,5.177107235801177
337.0,10.209290945089528,4.981079188317583
338.0,11.417028211756772,6.288629125922595
339.0,11.262745869394177,6.076632572777341
340.0,9.423328088119591,5.857238394964595
341.0,7.830389457120377,5.788335955940205
342.0,7.453501180173092,4.933280881195909
343.0,7.67993705743509,4.360031471282454
344.0,8.14036191974823,4.228324154209284
345.0,10.227799632835037,4.959915327263872
346.0,9.459214716571129,4.636870106028249
347.0,8.484446067962985,4.759218463152373
348.0,8.181421248169183,5.137371842960739
349.0,9.187612669717952,6.341246897090127
350.0,10.339347903177885,6.213381306999223
351.0,8.852469650513672,6.120899562869811
352.0,8.673481088042045,5.902643779411752
353.0,8.209583754823724,5.211561949720879
354.0,8.58630249896969,5.5438612266307
355.0,7.707470683001761,4.8675246337716835
356.0,7.162875126447117,5.606189352216102
357.0,12.24430144992694,4.335746131654865
358.0,9.429408789479599,5.1396472593758205
359.0,7.276073395526582,4.7401914503016
360.0,10.814285714285713,5.687857330186205
361.0,8.522659323367428,5.700078678206136
362.0,8.050865460267506,5.341227380015735
363.0,7.6214004720692365,5.323839496459481
364.0,9.151770259638079,5.864122738001573
365.0,7.346575624742422,4.595824435202877
366.0,8.279184931250233,4.822976846127908
367.0,8.27064085272189,4.499794874676858
368.0,9.357124124236634,5.739148027424974
369.0,10.72773594095388,5.901832078228616
370.0,9.632685174778015,6.766584241879285
371.0,9.791841819339853,4.927301337529505
372.0,8.023281255854034,5.077261998426436
373.0,6.744996440747817,5.3270615563298485
374.0,7.526550147989959,4.591382863137387
375.0,7.201139897343674,5.813433367052564
376.0,8.601779626091192,5.82365216739725
377.0,10.318817204301075,5.052304147465438
378.0,9.050345622119815,6.12215821812596
379.0,9.374336855119703,5.553240792776592
380.0,6.984077029710388,4.714192770250992
381.0,7.182833164737177,4.089688832017707
382.0,11.670525645348619,12.826334431369837
383.0,12.531115357236521,13.572921439955273
384.0,13.45846914690345,19.43778513644761
385.0,10.744288336892584,13.525757746056724
386.0,11.200153609831029,8.344546850998464
387.0,9.244067288599153,6.577475553557379
388.0,7.082183709288351,6.515489519659464
389.0,9.685638705642639,5.117959813593173
390.0,7.360158062498739,4.102528293893361
391.0,6.152256450604209,4.800054469527325
392.0,6.515467328370555,3.9400744416873446
393.0,6.193548387096774,3.294354838709677
394.0,6.033064516129032,3.112096774193548
395.0,6.823721479150275,3.0524193548387095
396.0,8.649840770297104,3.3434715821812597
397.0,6.741338912857403,3.301657213753988
398.0,7.018250101589992,4.328651187522155
399.0,5.261652588167144,3.412958559929449
400.0,5.86410717527948,3.593576054158273
401.0,5.449641913292583,4.008231959490811
402.0,6.632926829268293,5.177399685287176
403.0,6.8511408339889845,3.7552321007081035
404.0,6.388985051140834,3.6372541306058217
405.0,9.711211644374508,3.9107789142407556
406.0,8.618125023416132,4.09640328200517
407.0,8.215187703720355,4.528040350680005
408.0,8.515754374133603,10.482971788243228
409.0,11.9791315424675,15.212880746318984
410.0,18.193744864787625,13.624691887257528
411.0,14.490441425687433,9.147627499209296
412.0,13.300520252014223,5.881801460818166
413.0,9.102172755732488,4.999122602950389
414.0,7.9575155112820015,4.162593784334585
415.0,8.678468397587203,4.275148926604473
416.0,11.982597130118766,4.741392229590499
417.0,13.849747105765989,6.649881982690794
418.0,11.7470608070136,6.62029897718332
419.0,8.935625664657923,5.551116625310174
420.0,8.773342786246012,5.7978317381543185
421.0,6.784520855488597,5.444998818385915
422.0,8.427822976918177,6.917867229806647
423.0,10.97681471426554,6.192401356838808
424.0,9.814958225619122,7.050046832265557
425.0,9.18653104042561,6.386549773331835
426.0,8.381667977970102,4.634903150874827
427.0,8.10428796223446,6.751755273313101
428.0,5.810208497246263,6.3452324753662275
429.0,6.14744295830055,5.137132366715372
430.0,8.354996066089694,3.856764452437151
431.0,22.084180060694614,4.227921396725488
432.0,21.933386025077695,4.251729896759905
433.0,17.172280570142533,4.119394134247848
434.0,20.363751652198765,5.09114868002715
435.0,16.51328903654485,5.11994069946058
436.0,10.725538527489014,4.228557139284821
437.0,7.08294930875576,4.447416732231838
438.0,6.983102918586789,5.869637705593646
439.0,7.347542242703533,4.890272001798359
440.0,8.360944700460829,4.711725862650331
441.0,6.808294930875576,4.611104866809036
442.0,8.697542242703534,4.417818740399385
443.0,7.545878760630924,4.79946423888202
444.0,9.998033981491888,4.903656663294743
445.0,8.949420216552396,4.649408976808662
446.0,10.35658461653741,4.921291821213143
447.0,9.004713199205725,5.919171256228691
448.0,10.553733468210257,6.526619459742984
449.0,9.836662170769173,5.990296354576449
450.0,8.325589149900715,6.124180435352741
451.0,7.4085852909220336,7.275465512719642
452.0,7.880559926567008,6.464537671874414
453.0,8.147326814281968,5.907710464201416
454.0,8.633065452774343,6.176907946498821
455.0,6.52862950058072,7.246518489378442
456.0,9.854445318646734,5.688677831478776
457.0,8.393428496496947,5.406934921883781
458.0,8.92559289648196,6.647015848038665
459.0,12.979262672811059,5.4443164362519205
460.0,10.432786332471618,4.829849012775842
461.0,7.247855082237457,4.8890637293469705
462.0,9.717859952793075,4.232550297853209
463.0,8.577823985613128,4.546382675808324
464.0,8.499685287175453,4.82209358959949
465.0,8.124350904799371,5.5668296429508075
466.0,8.508280881195908,6.458788542954554
467.0,9.762785208497245,5.76416020381402
468.0,10.806507811621895,5.862110823873216
469.0,10.719427897043946,6.818508111348395
470.0,9.766578622007419,6.065331947098272
471.0,7.121389232325503,4.979843392903975
472.0,7.072811059907834,4.40888314413098
473.0,8.643932411674347,4.541999175752126
474.0,8.673732718894009,5.8090180210557865
475.0,7.946622457007981,5.159819789442134
476.0,6.706198718669215,5.0708619010153235
477.0,7.462833042755463,5.689735151557924
478.0,9.834981393431981,7.665762259380177
479.0,9.111653523136882,6.5958611604120545
480.0,8.70280514379466,5.645650785518679
481.0,8.493416733974435,4.228411545395059
482.0,9.263676894833463,4.1273519163763055
483.0,6.751893320422038,4.994186963050062
484.0,5.116151223546975,4.647929437465235
485.0,4.845710020375638,4.202228927641988
486.0,5.190829233708856,4.74593856183156
487.0,4.86409132435883,5.957585818325393
488.0,5.267618298302798,6.558278071259975
489.0,6.855288299426773,5.978588288187029
490.0,10.651530478438424,5.447435465138062
491.0,9.802877374395862,5.233164737177326
492.0,10.07712712150163,5.32830542130306
493.0,9.630617061930987,5.079573639054363
494.0,10.457285227230152,4.5423344947735185
495.0,10.224764902026898,5.717225843917425
496.0,7.814644449439885,6.289759656813158
497.0,10.403731594919636,16.377617923644674
498.0,8.9925085801067,13.379054693987085
499.0,10.421191534817503,12.4653131924096
500.0,8.698007254426846,8.652798216975846
501.0,8.892355318794856,6.590836559314044
502.0,8.115298336779317,5.27095310412969
503.0,8.328009441384737,5.441699449252557
504.0,7.347899897113114,3.954362605660796
505.0,12.385673001270955,4.1303677701789425
506.0,9.321091811414393,5.981548951965946
507.0,8.951055815414588,5.779317430536942
508.0,8.118879599288727,7.029076496543057
509.0,6.186238807088532,4.915448091116855
510.0,7.424708703308232,4.99378816829643
511.0,8.279811546963396,9.29077591697576
512.0,8.269546850998463,10.52286538533588
513.0,7.874692780337941,7.967884305571166
514.0,7.738556067588325,6.558135701172679
515.0,6.935367726949159,5.224386497321195
516.0,49.45385897868195,4.300749316248923
517.0,57.93304765651343,8.366365066876476
518.0,62.25916975759619,15.437022779213965
519.0,51.66578142793538,12.389844847971574
520.0,39.98756832065159,12.00562640660165
521.0,28.8132926088665,16.11840460115029
522.0,18.50207194655807,11.72409173722002
523.0,13.761404636873504,8.592076590576216
524.0,10.523952416675598,5.966241560390097
525.0,10.833816903703276,5.707503530934998
526.0,11.944398991733996,5.015716472672175
527.0,9.842381327039076,4.34099509197857
528.0,9.503371923120152,4.101757146603724
529.0,10.29508073882582,3.580195571540969
530.0,7.024015585777978,3.0798696189726873
531.0,6.0674759282155035,3.187063054962347
532.0,6.2134614664119,4.789000037465812
533.0,7.766925180772545,4.357886553519913
534.0,8.841527106515304,5.071311490764677
535.0,11.28527968228991,6.015091229253306
536.0,11.145393578359748,5.446176613839871
537.0,8.359716758457907,4.776160503540519
538.0,7.7530853096549395,4.413837997826983
539.0,7.782148477014724,4.242442208984302
540.0,7.695547231755674,4.303713602616682
541.0,7.76527389687143,4.949541414099169
542.0,7.60663380130747,4.786660950952023
543.0,8.609066029573595,4.367385400357057
544.0,6.934352054912683,4.420907491681282
545.0,9.78022929077217,4.371068899629089
546.0,10.810207992898786,5.774746313219956
547.0,10.060100062539085,5.200119026004156
548.0,8.919244890960076,4.80975566526314
549.0,7.666864587025878,4.372825830083894
550.0,7.490287132222615,4.142461302138722
551.0,7.427112135176651,4.562711213517665
552.0,6.931490015360983,4.06236559139785
553.0,7.935407066052227,4.319585253456221
554.0,7.641338840807762,4.651512682177513
555.0,7.958169420403881,5.075353115282304
556.0,6.35064253868345,4.2941478400959125
557.0,7.035480124386497,4.266898954703833
558.0,6.230829048725596,4.052214882989039
559.0,8.536342927195214,4.829018535121585
560.0,9.665060864519265,4.034747362798887
561.0,8.871082753266712,4.779765498866006
562.0,10.44372765665284,5.148246992061604
563.0,11.301562324379004,4.797572215353489
564.0,9.619309879734741,4.977464313813645
565.0,10.59690532389195,4.254093140009742
566.0,8.485942827170208,4.335701172679929
567.0,9.65323142632348,4.496519426023753
568.0,59.97024090517402,4.978674459555656
569.0,42.65821250608819,4.269038252594507
570.0,24.5222706155633,3.380294855943951
571.0,14.518796598104231,3.321599040875201
572.0,11.905739762466748,4.291798733655539
573.0,7.295803829006031,4.110569105691058
574.0,9.183307107264621,4.06157880933648
575.0,10.718304859315873,4.570727960735828
576.0,12.800704357273986,5.631036679030384
577.0,11.386396163500805,5.778558315537072
578.0,8.07461129219587,5.689663182346109
579.0,6.300126158918448,4.897767902173881
580.0,10.267132971932343,4.690819434957908
581.0,9.47185532646898,4.735818295233148
582.0,13.374176511160757,5.332578886479862
583.0,10.323280230403352,7.914302818534974
584.0,9.654760815639449,7.982247739635257
585.0,7.783779568585526,6.209652587362869
586.0,8.729624217901165,4.8332584017084415
587.0,5.702753737214792,4.101652242328875
588.0,7.0708103855232105,4.013060582218725
589.0,6.59008654602675,4.610385523210071
590.0,6.8084185680566485,4.245175412051887
591.0,5.9066286388670335,3.820974802800137
592.0,6.251455546813533,3.931946882123908
593.0,12.10432730133753,4.329024188504912
594.0,12.514454310441721,5.458562523236008
595.0,9.924969090704732,5.776096811659361
596.0,9.021355513094301,6.136435502603874
597.0,9.088962571653365,5.621718931475029
598.0,7.52848338391218,4.922338990671013
599.0,6.6294786055801005,5.161187219546779
600.0,7.9965941414997275,5.076964577515325
601.0,10.289003207649943,5.066255695523989
602.0,10.398632209647158,4.943828083796612
603.0,8.316827625560906,4.431207436675571
604.0,7.454171818215878,3.958957139110561
605.0,10.360496047356786,4.159566895208123
606.0,9.415870518152186,3.5336630324828593
607.0,8.252781836574126,3.6401596043610205
608.0,7.561260349930688,4.001877037203552
609.0,6.629478101232625,3.788880146865985
610.0,9.075107714210782,4.613334082649582
611.0,7.709699898842306,4.486830766925181
612.0,8.749027762167021,3.9448315911730547
613.0,8.638223558502865,3.734512569780075
614.0,9.491289198606271,3.6934659623093924
615.0,6.988591660110149,3.1442958300550745
616.0,5.651970701734667,3.2352365966055974
617.0,6.617802817429096,3.5625435540069685
618.0,7.7270465700048705,3.4788524221647745
619.0,8.532996141021318,3.342238956951782
620.0,12.669836274399609,3.8029616724738675
621.0,12.019096324603797,4.169914015960436
622.0,9.108820388895133,3.9862650331572436
623.0,7.5969652691918625,3.8769248061144204
624.0,6.341362256940542,4.089524558840059
625.0,5.612234461054287,4.343430369787568
626.0,9.27451200779289,5.195908733280881
627.0,8.862200741823086,6.481285826683152
628.0,8.227117755048518,5.699261923494811
629.0,6.818927728447791,5.791540219549661
630.0,7.570046082949309,5.466973886328725
631.0,9.572302965851353,6.104041120170152
632.0,12.279613698653826,6.23952758492491
633.0,9.102556465302335,6.322144744843406
634.0,8.291012600040926,5.622454486242841
635.0,8.695771838966174,5.3092111140891625
636.0,9.154089393428496,5.023670900303472
637.0,9.071930613315349,4.485478251095875
638.0,8.153186467348544,4.922265932336742
639.0,8.368676707504402,5.957311453298865
640.0,9.073402083099172,4.056153759694279
641.0,11.593555880259263,4.247431718556817
642.0,11.603229553032858,4.3750927278858045
643.0,7.99524184181934,4.178026301000338
644.0,7.535601888276947,4.318725413060582
645.0,7.419968341388483,4.445751376868607
646.0,7.048329024764902,4.645725150799894
647.0,7.179050794928697,3.8108687232783804
648.0,8.175412494238543,4.201805329381125
649.0,7.736801447748697,3.4754109259022066
650.0,5.865482137084793,3.7554473984349745
651.0,5.767085978811775,4.959483468428083
652.0,7.924803304484657,4.740656963021243
653.0,8.33296616837136,4.64492525570417
654.0,9.906923682140047,4.715932336742722
655.0,9.674429583005507,4.628127458693942
656.0,9.181413210445468,4.574769585253456
657.0,7.332642089093702,5.208755760368663
658.0,6.873736465475254,3.6765454647634037
659.0,6.878995728897381,3.507070735453898
660.0,6.116321981192161,3.78193398523847
661.0,8.294823161365255,3.3404443445356113
662.0,7.527653516166498,4.53151249484845
663.0,6.44628151811472,4.191247986212581
664.0,5.438728410325577,3.627245138810835
665.0,5.6049248810460455,4.279444382001424
666.0,8.311903825259451,3.498573489191113
667.0,6.963613202952306,3.721464163950395
668.0,6.781019819414784,3.8261923494810985
669.0,6.426795549061481,4.345863774305945
670.0,6.625340045812846,5.622705044728081
671.0,8.013898901554656,4.9179385438694165
672.0,11.62174690013967,3.5107322126698923
673.0,10.828576046450637,3.253005760150839
674.0,8.981645934131617,3.1360266895992295
675.0,8.25226332715583,2.8254777108911373
676.0,6.334964228862093,2.5326313285638484
677.0,5.997639653815893,2.4314319433516918
678.0,5.548387096774194,4.018548387096774
679.0,6.943548387096774,4.29516129032258
680.0,6.349270353302611,4.267665130568356
681.0,7.204700086171368,4.38784515379716
682.0,7.484352403431868,4.057288037166087
683.0,5.583541268592409,3.135439848638118
684.0,6.019355415106792,4.1150834478922595
685.0,5.328878936432044,4.067372753131998
686.0,6.111331679073614,3.6867154875022696
687.0,7.189418789969537,3.138794407795195
688.0,8.708714115677136,3.1320250559825698
689.0,9.975886066464351,2.6024062418043536
690.0,7.9232924955977655,2.7109381439436513
691.0,7.536559139784946,3.390668202764977
692.0,6.822311827956989,2.9304147465437786
693.0,6.488172043010753,3.866820276497696
694.0,7.317050691244239,5.462211981566821
695.0,7.496850998463901,4.024500768049156
696.0,5.310637480798771,3.534062980030722
697.0,7.123463901689708,3.985176651305683
698.0,7.8863287250384015,3.8643625192012285
699.0,9.844086021505376,4.561213517665131
700.0,10.413631935858529,3.950785845416058
701.0,10.932524071784496,5.173632497845716
702.0,9.137839533925293,5.701145517215541
703.0,8.798827320070437,6.3774118616762205
704.0,7.172455134689596,5.917200554494023
705.0,7.30062567906785,5.460567232400434
706.0,9.663294743546514,4.918284181069389
707.0,8.389869244314562,4.785420611384419
708.0,10.919167509647446,4.710176867454601
709.0,9.434622157281481,4.491417158765703
710.0,8.67443145629613,3.865299452710939
711.0,7.227538308793227,4.274006219324866
712.0,6.487596986354602,5.926162899609919
713.0,7.084699920624755,5.4063582097615
714.0,6.143348424214067,5.582979412100412
715.0,4.840989711713642,4.583543207230379
716.0,7.743478726824563,3.6787339692065877
717.0,8.398924731182795,3.9182795698924733
718.0,9.182411674347158,3.944930875576037
719.0,8.068501554831215,3.5042177138361246
720.0,11.351845191262973,3.5323704619534677
721.0,9.746199093327338,4.030778164924506
722.0,8.316432505338877,4.552470870330823
723.0,7.211442059121051,4.031074144842831
724.0,6.539552658199392,4.545434790753437
725.0,6.561829830279869,4.112056498445169
726.0,5.815093102543929,4.576765576411525
727.0,7.01478494623656,3.7295314900153604
728.0,6.955376344086021,4.0014592933947775
729.0,7.176075268817204,3.610407066052227
730.0,7.828187403993855,4.056221198156682
731.0,5.643506238057772,3.986420516278895
732.0,4.779591435315275,3.8213180472818555
733.0,5.9532557791015694,4.299867933011127
734.0,6.6516278895507845,4.290659772957176
735.0,5.392859016147765,4.527893297366154
736.0,8.182023903188341,4.5596643063204825
737.0,11.214649132666441,5.391723802030647
738.0,12.076293507174702,4.545099471732044
739.0,9.760558606550592,4.196499473300381
740.0,7.392081034195831,3.969925582440906
741.0,7.13574865841896,4.091875233616766
742.0,8.922329014309327,5.350853131401317
743.0,7.327018165691248,4.881170074748653
744.0,6.007995204376007,4.894448503240793
745.0,6.6652879247686485,4.644401670975235
746.0,9.83909557528755,5.389539545165036
747.0,9.107719830654528,5.869500955378216
748.0,8.156797235023042,5.321697388632872
749.0,8.517511520737326,5.356413210445468
750.0,7.440010677756547,5.049813607583079
751.0,7.35264695964932,4.2270802892360715
752.0,6.863362182008917,5.976387171705818
753.0,7.21163500805515,5.283124461428946
754.0,9.406466599228203,4.808212506088195
755.0,8.68004196170994,5.6949158892510585
756.0,6.637031209021767,6.064216402532688
757.0,6.999606608969315,6.6316923307481925
758.0,10.41504627027837,6.980517777528005
759.0,9.716159004908022,7.512007792888989
760.0,7.701472406429133,6.6846127908283695
761.0,6.519500955378217,4.939473979993256
762.0,6.22534187553857,5.437248510733955
763.0,7.241152448390843,5.853400022479487
764.0,7.922419542167772,6.350279120302724
765.0,7.1986306245550935,4.874495148177288
766.0,6.00608163800532,4.448655913978494
767.0,5.701319733243416,4.50718594282717
768.0,4.805095350492675,4.010044584316811
769.0,7.2282005170282115,4.351796485706792
770.0,6.50849349968154,4.897096399535425
771.0,6.427968228991045,4.629193361058034
772.0,6.1847158218125955,3.995084485407066
773.0,7.968970814132104,4.545929339477727
774.0,7.565130568356375,4.08863287250384
775.0,8.80214160683028,4.538172043010753
776.0,9.460748222769979,4.856989247311828
777.0,7.4120753402636375,4.769969278033795
778.0,6.49731422402639,4.783470083548762
779.0,6.516759851983902,5.1412974323720295
780.0,6.783511208812657,4.85459470268264
781.0,7.86303805916636,4.559811120027394
782.0,8.905311693777103,4.005178123799243
783.0,6.781493282728348,4.370559538839414
784.0,5.878203871525372,4.01096179968337
785.0,6.939746327629884,4.340189577010978
786.0,9.389621393555304,3.7911805477501783
787.0,7.362473954055385,3.6457869693904312
788.0,7.684262341382719,3.98722790453711
789.0,8.277221650628416,5.469302386572252
790.0,6.461605035405192,4.77551140833989
791.0,8.49750758682702,5.112198868532465
792.0,7.687329062230714,4.773073320594957
793.0,11.118251470533139,5.274813607583081
794.0,9.469609606234311,5.66240680379154
795.0,9.483998351504251,4.494106627702221
796.0,9.797298714922633,4.057037952868008
797.0,8.377331528003952,4.130017565366952
798.0,8.715809745119206,4.024489506522972
799.0,7.008557714341476,3.905044292431993
800.0,7.298172866387329,4.135049027936427
801.0,13.972011295506803,4.802900202402517
802.0,12.993668277696603,7.015585777977596
803.0,15.66303248285939,5.532763852984152
804.0,11.836892585515717,5.407702971038927
805.0,8.941103742834663,5.951931362631599
806.0,8.611779251433067,5.24268480011989
807.0,7.7404518376981,4.255674197294969
808.0,6.959780450339066,4.06255292046008
809.0,5.5068487505151555,3.4822749241317297
810.0,5.349055861526358,3.500550747442958
811.0,7.6058418568056645,3.0186467348544452
812.0,7.226986624704956,2.9391227380015734
813.0,7.223977183320221,3.665125885129819
814.0,8.5926435877262,3.723210070810385
815.0,8.00937113633809,3.904765651343149
816.0,6.968169045745757,3.6224851073395525
817.0,7.833425845070219,3.670529608078782
818.0,6.355422599954464,3.3517970621039073
819.0,6.568348593446942,3.4604776026491213
820.0,5.694542960317941,4.090377050172487
821.0,6.866154249631826,3.4897203897597286
822.0,8.115106215578285,3.9008851298190406
823.0,7.873259713011876,3.8178964819602115
824.0,11.199014649132666,3.4119628339140533
825.0,43.43138136450489,3.33831628638867
826.0,36.21930987973474,2.899763965381589
827.0,34.91751152073732,3.211674347158218
828.0,23.78863287250384,3.7333333333333334
829.0,16.902611367127495,3.946927803379416
830.0,11.666589861751152,3.5587941628264206
831.0,9.466359447004608,3.352380952380952
832.0,8.964516129032258,3.141551459293395
833.0,8.308969315499606,2.887155782848151
834.0,5.62728166797797,2.887667191188041
835.0,5.6470298977183315,3.0417191188040915
836.0,7.998918174665618,3.1865853658536585
837.0,7.97970102281668,3.1444531864673486
838.0,8.2573564122738,4.3991345397324935
839.0,8.030330448465774,3.7385129819040124
840.0,8.954583005507473,4.308044846577498
841.0,9.926042486231314,3.472541306058222
842.0,8.84972462627852,3.083634933123525
843.0,7.719826907946498,2.7037372147915026
844.0,6.858969315499607,2.8764948859166006
845.0,6.020613690007869,2.857199055861526
846.0,4.860660896931551,2.688945712037765
847.0,5.980684500393391,2.4085955940204564
848.0,6.366955153422502,2.5458300550747444
849.0,6.837273800157357,3.942840283241542
850.0,6.089634146341464,3.4982100708103854
851.0,5.889457120377655,2.992407553107789
852.0,6.597600314712825,2.8422305271439807
853.0,8.42863886703383,3.2231313926042486
854.0,28.87128245476003,3.1379228953579856
855.0,33.49541793113784,3.1296185980292983
856.0,46.869266794050425,2.871654302948559
857.0,49.162052751863925,3.4442948934097637
858.0,34.55556554643887,6.039294144093515
859.0,23.893618550345536,10.640847272318554
860.0,17.05049591111747,9.079640226021029
861.0,11.684964714016642,6.864367713325227
862.0,8.3251436473309,5.445490308275517
863.0,6.696750011069444,6.751931022033303
864.0,9.647068997214461,4.94868255391374
865.0,9.462551395688642,4.456676146388514
866.0,13.831908870074662,4.292629407351837
867.0,11.224806201550388,3.777247883399421
868.0,8.804415389561676,3.6632015146643804
869.0,8.216589861751151,3.8517665130568353
870.0,7.189708141321044,4.440860215053763
871.0,5.118904726181545,3.9540599435573176
872.0,5.97154820063901,3.938196657178232
873.0,7.188510977918696,4.02444470002518
874.0,6.0751310649962145,3.79248348672534
875.0,6.63979287504803,3.8155965820723474
876.0,5.201888276947285,3.7775767112509833
877.0,6.329504327301338,3.7141227380015733
878.0,5.227069337690896,4.38485091488632
879.0,4.67401853981319,4.7541190058302565
880.0,5.657947507514777,3.82518106074361
881.0,5.914320874509702,3.2656121481455864
882.0,5.405232821204496,3.487251392719528
883.0,5.033964632273051,3.146437937881683
884.0,9.26043235547563,3.0649282529691657
885.0,9.045093851860178,3.6849499831403842
886.0,10.544052302274174,4.440401258851298
887.0,7.707903413135513,4.04427616050354
888.0,6.309242815930464,4.417938630999213
889.0,7.316604848076131,4.236600352178637
890.0,9.341866172117943,3.9543216814656628
891.0,12.89750758682702,6.638067138735903
892.0,10.398448915364728,6.520587463939155
893.0,7.4550222921584055,5.740043460342437
894.0,6.932733880334195,4.521250608819452
895.0,6.006919935558803,5.2720692368214
896.0,6.430725712787082,5.0297366153385035
897.0,6.333717357910906,6.824654377880185
898.0,6.807505338878274,6.668406017009479
899.0,7.560690221134753,6.628795647048991
900.0,9.656554787986732,6.4055268557825595
901.0,7.895750512272937,6.957429326508791
902.0,6.490080493857048,6.462801059417896
903.0,6.892955274465896,5.657443015940262
904.0,6.552019407290848,4.8144121614027195
905.0,6.289719381064779,4.410835112959424
906.0,5.198033044846578,4.112352478363494
907.0,8.81317859952793,3.6618410700236033
908.0,7.5018686073957515,4.1776553894571204
909.0,9.100550747442957,4.3523800157356405
910.0,8.97254879922071,4.088958825072122
911.0,9.441821213143008,3.756123787044322
912.0,7.3943173728972305,4.128533962758983
913.0,5.870180959874114,4.028399085834176
914.0,9.022816679779702,3.864002847401746
915.0,8.38582293657038,4.2871679592371965
916.0,8.706916188977559,4.6171481023566
917.0,8.543859353340078,6.113845490989472
918.0,7.297659323367427,5.7089964782136295
919.0,6.898426435877262,4.820224045558428
920.0,7.36243115656963,4.65716159004908
921.0,5.9396538158929975,4.5784234386122655
922.0,5.479661683713611,4.975285676819902
923.0,6.810798583792289,4.854386309992132
924.0,7.2074154209284025,4.234854445318647
925.0,7.671046420141621,5.012588512981904
926.0,5.950786782061369,5.505114083398898
927.0,5.57173672773594,5.085721778876774
928.0,7.416916750964744,5.188828631373871
929.0,6.569758532838785,4.864821475403694
930.0,7.597575961934734,4.781840320707355
931.0,6.600518901502378,4.409802929826533
932.0,7.207100708103854,4.722482297403619
933.0,10.16443745082612,5.033044846577498
934.0,16.67112509834776,4.860739575137687
935.0,12.622501966955152,6.67663257277734
936.0,12.931235247836348,5.8528717545239966
937.0,12.81140833988985,6.256884343036978
938.0,9.997757671125097,6.365656963021243
939.0,7.485424862313139,5.533103855232101
940.0,5.731864673485445,4.884815106215578
941.0,6.5917387883556255,4.645633359559402
942.0,9.08579858379229,4.872383949645948
943.0,10.14022423288749,4.345239968528717
944.0,9.664870180959873,4.961329661683713
945.0,7.248286875725899,6.060017421602787
946.0,6.157335806076954,5.438574800494548
947.0,8.974363081188416,4.479599865123075
948.0,6.815464950732457,3.5286632198119214
949.0,8.004833089805551,3.8499306882469746
950.0,6.568431306432879,3.6488329399423027
951.0,8.285081113483946,5.295305533700498
952.0,7.7793563373421755,4.516091566445618
953.0,8.720857217788767,4.6453860851972575
954.0,12.08930725712787,6.74012775842044
955.0,12.026557641152449,6.848112659698025
956.0,12.564085272189127,6.268007942752238
957.0,8.485032407927765,5.280266756584616
958.0,10.358173166985125,5.069322992769098
959.0,10.490316176605127,4.326975646350612
960.0,9.474210015918613,4.835065321208351
961.0,9.727427588604467,4.686484273507402
962.0,10.871384919400581,4.187744497099885
963.0,9.416827987484677,4.236142572228423
964.0,9.205083892924451,3.59347977238212
965.0,11.109622985014546,4.1098004684097855
966.0,11.384443671893582,4.586932098878378
967.0,10.221107977342768,4.642272763312779
968.0,11.148392716646061,5.3862837660634675
969.0,11.670951818965193,4.685086733355813
970.0,9.253306357948372,4.734891911131093
971.0,8.82020156607096,4.589711887902289
972.0,8.36649057734817,4.221160690869581
973.0,10.085721778876776,4.3474954104379755
974.0,9.861601288823948,4.788955078490877
975.0,12.523430509195244,5.018048066023475
976.0,11.273516985518157,5.961817109329597
977.0,9.289158178046254,6.040940025947253
978.0,8.067006124353389,5.631376310976699
979.0,8.307977604157138,5.501443653596326
980.0,9.590597954366642,5.43901890106673
981.0,6.837391817466562,4.459871370281595
982.0,8.358615263571991,4.661387298044024
983.0,7.5534225019669545,4.210630706457102
984.0,6.538391218013563,4.91892293630899
985.0,8.60145367352291,5.5470083548761755
986.0,7.315754374133602,5.051159566895208
987.0,6.9707804128732525,5.272353976995991
988.0,7.861827956989247,4.7499231950844845
989.0,6.685288112097711,5.1419242441272335
990.0,5.839231388857668,5.1531218388220745
991.0,4.469942115319771,5.674083960885692
992.0,8.725581656738226,6.054419092578023
993.0,11.595893746955902,7.272601251358136
994.0,9.666029747855083,6.668352628226743
995.0,8.236634071409838,7.480124386497321
996.0,7.843411636881346,7.581188415570791
997.0,7.8571053913304105,7.2750177962609115
998.0,8.04117492787831,5.743471582181259
999.0,7.432415420928402,4.064516129032258
1000.0,8.006623955640478,4.198081750402757
1001.0,6.075695927466187,4.0781911505751
1002.0,6.069712637218538,4.572140421865048
1003.0,5.853975122700536,5.23540144618036
1004.0,7.423899441759394,5.30908545951819
1005.0,7.494591809973398,5.0650650031845945
1006.0,8.065942639841143,5.3829652317260495
1007.0,8.721277771533476,4.853982615863025
1008.0,6.977977595444157,4.745539695028286
1009.0,6.306605222734254,4.2167434715821805
1010.0,4.541420328949833,4.007195309280282
1011.0,5.910167284852571,3.7881570566857743
1012.0,5.824841706942415,4.198110786407403
1013.0,6.7301824585066115,5.158191899891349
1014.0,7.819392304522124,4.116346333970252
1015.0,7.364793376044359,3.8643063204825596
1016.0,6.570830991720055,4.4799895095725155
1017.0,6.9022741748154814,4.168873403019745
1018.0,6.060893184968716,4.353122775467385
1019.0,8.55287362781462,4.513734966842756
1020.0,12.399247873815144,5.063011876662545
1021.0,10.750833614326925,5.005522460754561
1022.0,9.27787456445993,4.885633734217526
1023.0,7.285278745644598,5.113155183395151
1024.0,7.2462684050803645,5.501335656213705
1025.0,7.1981342025401815,4.906312989397175
1026.0,6.550680004495897,5.444895283054213
1027.0,7.684326177363156,5.705934584691469
1028.0,10.814861751152074,6.289788692817804
1029.0,9.40541474654378,6.740862088344386
1030.0,8.092626728110599,6.190592334494774
1031.0,7.709907834101382,5.690552995391705
1032.0,6.564247311827957,6.227380952380952
1033.0,6.107979281405717,4.489054362893859
1034.0,7.361612528567681,3.591570192199618
1035.0,7.070735453898317,3.014667865572665
1036.0,6.064671756253189,2.839278869569979
1037.0,6.629878120830127,3.7318514163518097
1038.0,8.957172789579062,4.232108717342831
1039.0,8.481889006156658,3.7348715629724905
1040.0,8.776743086870617,3.245877953004735
1041.0,9.215178620439081,2.976012470016459
1042.0,7.03616073879097,2.850141411659535
1043.0,7.442011352141171,3.7625800831741034
1044.0,7.6837360908171295,3.7709021767637028
1045.0,7.246667415982916,3.4650144243377916
1046.0,6.450556367314825,3.508195646472594
1047.0,6.3844947735191635,4.018844367015099
1048.0,8.857569967404743,4.91466411899142
1049.0,7.032612116443746,5.229071597167584
1050.0,8.284018021055786,4.308796036117043
1051.0,7.78465493986737,3.5599087707466937
1052.0,7.158859727998202,4.301325353115283
1053.0,7.966123412386198,3.5800981604286086
1054.0,7.510599078341014,3.76605222734255
1055.0,5.843597092652955,3.5657094151586675
1056.0,6.060638201295164,3.470819968125239
1057.0,5.971497306784482,2.8502703302467265
1058.0,6.2752647824244985,2.706586778026589
1059.0,7.656987229921927,3.3016804857874877
1060.0,5.74556678569267,3.4804232484012183
1061.0,7.2399685287175455,4.216325727773407
1062.0,10.873477951369374,10.623786107676745
1063.0,14.185785896505802,7.980038215128696
1064.0,9.128780045027094,6.391632010790154
1065.0,7.0958416354167735,5.291783747330561
1066.0,6.703552361616878,4.60486825002954
1067.0,6.558793527479601,3.3947124210696202
1068.0,6.0332410377453645,3.2404703544554057
1069.0,6.767830196292037,3.698057757872864
1070.0,7.741576388468599,3.3300772660332063
1071.0,6.709746010611471,3.0852206015856685
