time,emg_right_hand,emg_left_hand
0.0,6.512195121951219,5.878048780487805
1.0,9.94850948509485,6.8799845141308555
2.0,7.835075493612078,7.4914219346275095
3.0,10.803035230352304,7.335996902826171
4.0,10.440178337267243,6.039998501367502
5.0,9.889247311827958,5.570353302611367
6.0,8.291935483870967,5.75
7.0,14.27741935483871,6.153225806451612
8.0,12.625806451612902,5.566935483870967
9.0,10.201612903225808,5.776612903225806
10.0,8.074193548387097,4.999193548387097
11.0,9.629838709677419,7.229032258064516
12.0,10.411762391817465,6.98249409913454
13.0,9.685719905586152,6.777537372147915
14.0,10.117597387151667,7.769920223958429
15.0,8.750360455967652,8.386041937313596
16.0,9.809857647338664,8.622859678334217
17.0,8.87424432327594,8.69695304923792
18.0,7.199504144328765,8.510740490000547
19.0,6.427025963808025,7.1870574350904795
20.0,6.645062942564909,7.101396538158929
21.0,5.853658536585366,7.247049567269866
22.0,5.415420928402832,7.209284028324154
23.0,5.713611329661683,6.174815480873702
24.0,6.5019669551534225,7.485519463489566
25.0,6.715184893784421,6.372972162901353
26.0,6.485916601101494,6.705211494511259
27.0,6.1675845790715975,5.997452324753662
28.0,5.799921321793863,5.688434303697875
29.0,4.860542879622345,6.974744295830055
30.0,3.9443548387096774,6.162903225806452
31.0,5.686093627065303,6.6309992132179385
32.0,4.838788355625492,6.804346970889064
33.0,6.176652242328875,6.812254130605822
34.0,7.023406766325728,5.169433516915815
35.0,8.458536585365854,4.839889850511408
36.0,6.690715971675846,5.389953542392567
37.0,6.183280881195909,6.144544041062531
38.0,7.125688434303698,6.374484845078865
39.0,8.783466336967518,6.839181746656177
40.0,7.396847251882657,6.069000786782062
41.0,7.193815331010453,6.256082574650631
42.0,8.03804653253906,7.737443332958675
43.0,7.858482259937807,8.493295492862762
44.0,8.763726537034955,8.88643269266794
45.0,9.608013937282228,7.480086920684875
46.0,10.640028474017459,7.200104904274849
47.0,8.627646023004008,6.4737739312877
48.0,8.041868045408565,5.732625229478101
49.0,8.558952455884004,5.851335656213704
50.0,10.90877074669364,6.957139110561612
51.0,9.133190963246038,6.803866471844442
52.0,10.425761492637967,6.9204226143643925
53.0,9.662133303360683,7.330392267056311
54.0,11.406635195384212,6.550747442958301
55.0,12.028586414896406,5.985051140833989
56.0,8.675583530028849,6.1959087332808815
57.0,9.312614739050616,5.301337529504328
58.0,7.723577235772358,4.9693154996066085
59.0,8.137124873552883,4.541961709939681
60.0,8.887078041287326,5.719643325465513
61.0,6.672885991532727,5.639129294518751
62.0,8.588213255404444,5.13899816417519
63.0,10.043254280469071,5.688265707541868
64.0,16.359184743921173,5.5664830841856805
65.0,39.580233037353416,4.847813869843767
66.0,52.812933198456406,5.002585141058784
67.0,30.9304817493572,5.403292460745848
68.0,18.404396395266065,6.227291578992309
69.0,11.755961638493247,6.012647325594465
70.0,7.90046030671431,5.304991753164772
71.0,5.914469035377311,5.026854274544245
72.0,7.701509872241579,4.816717245513469
73.0,6.137218538083998,5.023172604997939
74.0,7.919530928028173,4.998913491439062
75.0,8.019354838709678,5.313364055299539
76.0,8.352227342549924,5.283410138248848
77.0,8.479605484994941,6.141957963358435
78.0,6.623059270915289,6.561762391817467
79.0,7.440965119328613,6.47765538945712
80.0,7.97148477014724,5.653696002397812
81.0,6.866464351279458,5.606878723165112
82.0,9.33268142819677,5.517522760481061
83.0,7.312116443745083,5.317977970102281
84.0,9.58985051140834,5.011329661683714
85.0,6.86447678992919,5.085444531864674
86.0,6.421754523996853,5.382238394964594
87.0,8.570554681353265,6.796361132966168
88.0,9.774390243902438,6.2953579858379225
89.0,9.407258064516128,5.329032258064516
90.0,9.344354838709677,5.975
91.0,8.38225806451613,7.57983870967742
92.0,8.89516129032258,6.820161290322581
93.0,7.473387096774194,7.252419354838709
94.0,6.260483870967741,7.310483870967742
95.0,6.208870967741936,6.69758064516129
96.0,7.708064516129032,5.408870967741935
97.0,9.224193548387097,5.3153225806451605
98.0,7.712096774193548,4.9604838709677415
99.0,7.062903225806451,5.214516129032258
100.0,6.359677419354838,5.541129032258064
101.0,6.997639653815893,5.798387096774194
102.0,8.939142407553106,7.562903225806451
103.0,6.653442171518488,7.434677419354838
104.0,6.746479150275373,7.486290322580645
105.0,6.95912667191188,7.493548387096775
106.0,8.94274193548387,7.946774193548386
107.0,8.67677025963808,6.493764752163651
108.0,9.686369000786783,5.581963021243116
109.0,8.049232887490165,6.554287962234461
110.0,9.524173878835562,7.248249409913454
111.0,10.781038552321007,7.090464950732457
112.0,11.988473642800944,7.502746244052302
113.0,11.588322842905846,7.471995241841819
114.0,9.291146828518976,6.084672736128283
115.0,7.617249260050205,5.4573639054362895
116.0,6.283840995091978,4.793975497358661
117.0,7.186373684013338,3.907215915477127
118.0,8.107395751376869,5.386403656663295
119.0,8.84440448091117,6.609868494998314
120.0,9.397025214491777,6.3977745307406995
121.0,7.371998051777752,6.844441946723615
122.0,7.077816492450639,6.845509722378329
123.0,6.2696302124311565,8.253707242141544
124.0,6.529976396538158,7.098819826907946
125.0,4.912903225806452,6.314791502753737
126.0,6.625216365066876,6.339535798583793
127.0,11.021813532651455,6.041837136113298
128.0,10.87905192761605,5.963257277734067
129.0,9.599606608969316,6.11066089693155
130.0,10.949803304484657,6.862588512981904
131.0,10.154838709677419,6.476612903225806
132.0,10.045967741935485,6.358064516129032
133.0,8.42755704169945,6.241974822974036
134.0,9.254504327301337,6.658890637293469
135.0,8.41127065302911,6.845751376868607
136.0,10.110306845003933,6.924803304484657
137.0,11.40051140833989,6.358064516129033
138.0,9.138493312352477,6.428835562549174
139.0,9.863774305945824,6.062305646097935
140.0,12.222209733618072,6.643662657824734
141.0,12.077666629200854,6.306095687684987
142.0,9.66235809823536,5.6526544528118094
143.0,10.073581113048299,5.554393389288089
144.0,7.93848026466547,5.769132178515012
145.0,6.859484034771759,5.248059401609984
146.0,7.190166879699019,4.591771636288863
147.0,8.485720733319218,6.431999114761268
148.0,8.436858866284513,6.830703233299614
149.0,9.335326514555469,6.518961447678993
150.0,9.279779701022818,7.723918174665618
151.0,8.051848937844216,7.79744295830055
152.0,8.333870967741936,6.9282258064516125
153.0,7.733870967741936,5.6967741935483875
154.0,9.316935483870967,5.264516129032257
155.0,8.833870967741934,4.95483870967742
156.0,7.080645161290322,4.455645161290322
157.0,8.110483870967741,4.077419354838709
158.0,7.771774193548387,3.55241935483871
159.0,8.471774193548386,3.9298387096774197
160.0,8.24274193548387,4.171774193548387
161.0,8.383064516129032,4.291129032258064
162.0,8.663709677419355,4.355645161290322
163.0,11.154032258064515,3.9733870967741933
164.0,10.705645161290322,4.32983870967742
165.0,8.604032258064516,5.087096774193547
166.0,8.181864673485444,5.216876475216365
167.0,8.654681353265143,4.463512981904012
168.0,9.170987411487017,5.132395751376868
169.0,9.274645011427072,6.091409089206099
170.0,8.931677344423214,7.003769060732083
171.0,11.074030354278467,7.053034512983647
172.0,7.764080480050326,7.608263912668062
173.0,10.471340003990544,7.3245882899296255
174.0,9.703964558212725,6.646549137284321
175.0,7.874199037564269,5.5381250800505
176.0,8.887962234461053,5.567851522985276
177.0,8.167022591884905,5.812708403581732
178.0,10.141733168483757,6.846952156157506
179.0,9.77306957401371,9.79719755722903
180.0,9.156007643025738,9.243996103555505
181.0,8.407272114195797,8.118710426735603
182.0,8.435202877374396,7.5121201903263275
183.0,10.11453298864786,7.0912292533063574
184.0,8.108457763060438,8.187084093457027
185.0,7.631333523544381,7.115178553416161
186.0,8.465155353432301,7.264827671672675
187.0,8.225665234319838,6.824656539369364
188.0,7.7933991002441045,7.020274768504509
189.0,9.019351092128431,9.097635907234649
190.0,9.161674347158218,10.188940092165899
191.0,9.039938556067586,8.846082949308755
192.0,8.318553070323329,8.524379004158703
193.0,10.005263946648682,10.17595818815331
194.0,10.000711850436478,11.498287028203045
195.0,11.843673897568468,11.259512177695992
196.0,10.21407965231726,13.090969606513127
197.0,10.993518414446816,13.222079910221456
198.0,8.468509984639017,11.325831457864467
199.0,9.307987711213517,10.827188940092167
200.0,9.312903225806451,12.603533026113672
201.0,11.907275860777041,9.274894159079839
202.0,10.259949046495073,7.38299801431194
203.0,10.008238732156906,10.481437563223558
204.0,9.863341575812072,10.171247798883519
205.0,9.021580307968978,10.306208085122325
206.0,12.218425686561012,7.928365366602975
207.0,11.117159342100333,8.529800307219663
208.0,9.163418380727585,9.479569892473119
209.0,11.281889026263535,11.056652054999812
210.0,9.625115207373272,9.130645161290323
211.0,9.873233486943164,7.5722350230414746
212.0,8.179723502304148,6.933947772657451
213.0,9.047619047619047,7.782642089093702
214.0,11.847408280641588,7.145804308219912
215.0,12.8611081341764,6.772978959025471
216.0,9.487314772944107,5.530470596743262
217.0,7.785669675258536,5.204252195453044
218.0,8.792297203220667,4.565182933364003
219.0,7.458780113146753,4.213903562998763
220.0,7.511723052714398,5.049685287175452
221.0,8.061132966168373,4.859225019669552
222.0,8.022501966955154,8.092112509834775
223.0,8.953032857517515,10.468809711138586
224.0,13.500119890599828,8.405923344947734
225.0,11.356144393241166,7.007914652879247
226.0,10.286254730058822,6.248646547525382
227.0,7.5959499456745725,5.7773032108201265
228.0,7.037503278258589,5.895957438837061
229.0,7.236690270128507,5.7925892622981525
230.0,9.034618410700237,6.771046420141621
231.0,6.8851298190401256,7.465145554681352
232.0,11.066089693154996,7.080723839496459
233.0,10.575216365066876,8.446498819826907
234.0,12.039929189614476,8.402163650668765
235.0,11.226730920535012,9.199744295830055
236.0,11.096026750590088,8.482533438237608
237.0,11.294354838709676,7.579032258064515
238.0,9.344354838709677,6.639516129032257
239.0,9.928225806451612,5.263709677419355
240.0,11.673387096774192,4.987903225806452
241.0,12.991935483870966,5.723387096774193
242.0,11.702419354838709,5.695967741935483
243.0,13.55,5.734677419354838
244.0,12.539516129032258,5.5637096774193555
245.0,12.609677419354838,6.419354838709678
246.0,11.946774193548388,6.291935483870968
247.0,10.269354838709678,5.4927419354838705
248.0,10.129032258064516,5.130645161290323
249.0,8.995476003147129,4.84567269866247
250.0,12.886447678992917,4.745416994492525
251.0,11.635051140833987,6.993804091266719
252.0,10.02104642014162,6.6685287175452395
253.0,8.533449477351915,7.09094638642239
254.0,9.880021355513094,6.671515679442509
255.0,9.193735716159006,7.548334644636769
256.0,7.835341500880447,7.5750327825858905
257.0,11.53678955453149,6.627956989247312
258.0,10.311251920122888,7.50384024577573
259.0,8.324734929376945,7.302588887640028
260.0,7.401691581431944,7.026947285601888
261.0,6.781490952006294,8.52557041699449
262.0,7.587116443745082,8.532140047206923
263.0,8.189929189614476,7.576553894571203
264.0,10.622580645161289,9.041935483870969
265.0,8.94758064516129,7.095161290322581
266.0,10.01290322580645,6.870967741935484
267.0,7.912903225806451,9.07983870967742
268.0,9.324193548387097,7.812903225806451
269.0,11.048387096774194,7.570967741935483
270.0,9.123387096774193,8.153225806451612
271.0,11.443548387096776,7.529032258064516
272.0,11.897580645161291,7.248387096774193
273.0,8.705645161290324,8.150806451612903
274.0,9.547246262785208,6.561467348544452
275.0,11.483300550747442,9.257749803304485
276.0,8.72108575924469,6.569197482297404
277.0,8.319413847364281,6.757179386309993
278.0,11.382100708103856,7.79087332808812
279.0,8.786801730920535,6.7430369787568845
280.0,10.826829268292684,6.214221085759245
281.0,9.713414634146343,7.881707317073171
282.0,11.823642800944139,12.228756884343035
283.0,10.1521833202203,9.421223446105428
284.0,9.933949645948072,9.70483870967742
285.0,11.494748229740363,8.912450826121166
286.0,10.758575924468921,9.478894571203774
287.0,11.023760818253344,8.00173092053501
288.0,11.326593233674274,6.347836349331235
289.0,11.79217151848938,6.718214004720692
290.0,11.7243115656963,6.119590873328088
291.0,11.22383949645948,6.5368214004720695
292.0,8.77053501180173,6.667938630999213
293.0,10.766935483870967,7.399193548387096
294.0,10.219354838709677,9.261290322580646
295.0,10.637096774193548,8.475806451612904
296.0,8.758870967741936,9.066129032258065
297.0,8.700806451612902,9.816935483870967
298.0,10.841935483870966,9.553225806451612
299.0,10.99274193548387,10.212096774193547
300.0,10.151730920535012,8.054661683713611
301.0,9.014575137686862,7.601927616050354
302.0,7.517368214004721,9.787254130605822
303.0,10.026829268292683,10.87346577498033
304.0,10.227930763178598,9.777458693941778
305.0,8.79516129032258,11.25725806451613
306.0,9.458064516129031,10.350806451612904
307.0,9.069354838709678,10.286290322580644
308.0,9.674193548387096,8.138709677419355
309.0,9.055645161290322,8.741129032258065
310.0,9.04032258064516,8.14274193548387
311.0,10.846543778801841,6.79573732718894
312.0,10.639400921658986,7.799884792626727
313.0,11.444623655913977,6.589900153609831
314.0,9.777189876737475,5.649660934397362
315.0,10.156574673687182,8.629503750904224
316.0,8.287009377981054,10.871624978745356
317.0,10.034537715104198,9.176327082306626
318.0,11.039373686895324,9.045443148511598
319.0,11.708121147145537,10.222564217843527
320.0,10.704267356037615,9.106650181709192
321.0,8.594069161889774,7.681570566857742
322.0,8.322764227642276,7.332336742722266
323.0,10.586401783372672,6.58221872541306
324.0,9.728591098122962,6.575980667640778
325.0,13.88446667415983,5.64987074294706
326.0,13.006562137049944,5.608551571690832
327.0,12.85464482409801,5.334960286238807
328.0,11.28104979206474,5.76939792439399
329.0,9.020531265220486,5.82282417294219
330.0,9.7372522573152,6.106534037690608
331.0,11.766475591023191,12.118167172455134
332.0,8.712899479225207,12.131310179461241
333.0,9.101532351729048,9.475411187291597
334.0,10.363197332434154,7.636053351316923
335.0,11.593085684313063,6.40968678580795
336.0,12.739323180098161,5.757454760031472
337.0,10.19748417069424,9.58961447678993
338.0,10.57132273050841,9.136742722265932
339.0,11.243775055262073,11.398505114083399
340.0,10.82259563148627,8.337647521636507
341.0,12.774508261211643,6.880114083398898
342.0,13.593705743509046,5.598524783634932
343.0,12.185169158143193,5.782100708103855
344.0,10.042545239968529,7.461782061369001
345.0,11.423524783634932,10.594669551534224
346.0,9.263808025177026,9.615814319433516
347.0,9.929228953579859,8.145200629425648
348.0,9.977202989771833,6.782277734067664
349.0,9.177025963808024,8.226593233674272
350.0,10.236821400472069,9.40991345397325
351.0,14.35326514555468,9.237608182533439
352.0,13.701322543179348,8.407740436851373
353.0,10.754673860102656,8.887190438724664
354.0,7.564984451687835,9.991038177662883
355.0,9.503577985088606,7.529744108500992
356.0,7.994983327713461,7.56731107864074
357.0,11.323682140047207,7.7909520062942565
358.0,9.563099921321793,6.9564516129032254
359.0,9.986388670338316,7.9967741935483865
360.0,11.350629425649096,9.139614476789928
361.0,9.71904012588513,8.990873328088119
362.0,8.714358772619985,9.101888276947285
363.0,8.915165224232886,9.624822974036192
364.0,10.385503540519277,8.442191188040912
365.0,9.827025963808026,8.8448859166011
366.0,9.144984264358772,8.164299763965381
367.0,7.193056648308417,10.463198269079465
368.0,10.263060582218724,10.927970102281668
369.0,12.205645161290322,10.133064516129032
370.0,9.680645161290322,10.349193548387097
371.0,11.142741935483869,13.879032258064516
372.0,10.788709677419355,10.761290322580646
373.0,11.620161290322581,9.262096774193548
374.0,10.03467741935484,10.339516129032258
375.0,9.107258064516127,10.703225806451613
376.0,11.113709677419354,15.720967741935484
377.0,10.526612903225805,12.831451612903226
378.0,9.358870967741934,11.320967741935483
379.0,8.875806451612902,10.638709677419353
380.0,9.738709677419354,10.083064516129031
381.0,10.541935483870969,9.689516129032258
382.0,8.685621557828483,8.814516129032258
383.0,10.040794649881983,9.024193548387096
384.0,9.492309205350118,8.47983870967742
385.0,8.453658536585365,8.957238394964595
386.0,9.449409913453973,11.56168371361133
387.0,9.673564122738002,12.298544453186468
388.0,10.700606946161628,8.851077142107826
389.0,11.829978269828782,6.938595406691394
390.0,12.893746019257428,6.325709977145854
391.0,11.353190213929789,5.799932561537597
392.0,10.7678618260837,5.461728672586265
393.0,10.822056123787045,6.657506275523584
394.0,8.200104904274848,6.5317897418605515
395.0,6.345528455284553,6.520418867783148
396.0,8.43351691581432,6.39039376568881
397.0,7.27537372147915,7.476864860814507
398.0,8.132179386309993,7.9811546963395905
399.0,8.682140047206923,12.971773256903075
400.0,10.831707317073171,12.729631711063654
401.0,12.188434303697875,12.290007867820613
402.0,10.12254130605822,10.511723052714398
403.0,11.341129032258063,9.7
404.0,9.975,7.340322580645161
405.0,12.988709677419354,10.207258064516129
406.0,10.509677419354837,8.037903225806451
407.0,12.119354838709677,6.562096774193549
408.0,11.045967741935485,6.415322580645161
409.0,10.85483870967742,5.262903225806452
410.0,10.396774193548387,4.833870967741936
411.0,12.227419354838709,6.358064516129033
412.0,11.843548387096774,9.869354838709677
413.0,11.22309205350118,7.249252557041699
414.0,8.640578284815106,7.583497246262785
415.0,7.143157806002023,12.195608070136
416.0,9.012619422277172,10.79299482971788
417.0,8.575340002247948,9.276070585590649
418.0,7.704664493649545,8.490120265257952
419.0,8.434359896594358,7.59698025551684
420.0,10.443295492862763,5.874976583867221
421.0,11.955715409688658,5.1660484807613045
422.0,11.973923794537484,5.410010865085608
423.0,12.400191075643475,4.732805065377843
424.0,12.092491851185791,5.12223970626803
425.0,11.513594470046083,6.591804353527406
426.0,8.353728784983701,7.131228691319171
427.0,8.68210632797572,6.299082087595069
428.0,8.317781274586938,7.237175452399685
429.0,7.995987411487018,6.61294256490952
430.0,8.388709677419355,6.313709677419354
431.0,8.122187254130605,7.579130605822186
432.0,8.494964594807238,7.185129819040126
433.0,10.516837136113296,9.307887490165225
434.0,9.210031471282456,9.79628245476003
435.0,10.049370574350906,9.832415420928402
436.0,9.389516129032257,8.87741935483871
437.0,9.364516129032257,7.245967741935484
438.0,10.533870967741935,9.053225806451612
439.0,10.313394964594806,9.360542879622344
440.0,8.478874901652242,8.768174665617625
441.0,8.163630999213218,7.868764752163651
442.0,6.44911487018096,6.486841070023604
443.0,8.545121951219512,6.26801730920535
444.0,10.394748229740362,5.442348544453187
445.0,10.450806451612902,6.981904012588513
446.0,10.075345622119816,6.315068749765839
447.0,11.435185081113485,6.982756359821662
448.0,9.598916301374995,6.437798321531602
449.0,8.14045933086059,6.880671387359035
450.0,9.995485369600239,6.790060319958037
451.0,10.937450826121164,6.535199130793151
452.0,11.522835412685923,6.506612715896743
453.0,7.951032183132892,6.531827207672999
454.0,11.543966130905549,6.245850661271589
455.0,10.000149863249785,7.97383013000637
456.0,9.10228166797797,8.140833988985051
457.0,8.988198269079465,8.006294256490952
458.0,7.254130605822187,9.776553894571204
459.0,8.228878648233486,8.15863024989697
460.0,9.604623281255854,7.930463452099959
461.0,8.55801581057285,8.024240380652653
462.0,8.25068375107714,7.272151661608781
463.0,10.37784271851935,7.778015061256603
464.0,9.40582968041662,7.937994080401634
465.0,10.514128357873439,9.250256640815255
466.0,8.748409576261661,8.472099209471356
467.0,7.122985275935708,8.775388707804128
468.0,7.160570978981679,8.848523846989622
469.0,6.716792177138361,9.342436589112435
470.0,8.43329774081151,8.41729421902514
471.0,9.327978532089467,6.9293394777265735
472.0,9.735360233786668,6.010752688172042
473.0,9.062380577722827,5.602150537634408
474.0,7.437563223558502,4.632310516653553
475.0,9.16724738675958,4.529294518751639
476.0,9.310688996290883,4.356386047731444
477.0,9.957468809711138,4.007545614626653
478.0,10.250393391030684,3.6600708103855233
479.0,11.340853658536584,3.3807828481510622
480.0,11.436801730920534,4.109933123524783
481.0,11.683595594020456,4.177222659323367
482.0,15.213158929976398,4.44581038552321
483.0,11.969492525570416,4.472167584579072
484.0,11.326514555468137,5.571990558615263
485.0,8.712824547600315,6.585365853658536
486.0,7.92006294256491,5.856490952006293
487.0,8.73501180173092,5.0808811959087326
488.0,8.895623993106291,5.577513019369825
489.0,7.8372691169308,6.132186879472481
490.0,10.48944494398861,7.237611929114682
491.0,10.704095013300364,7.627814619160016
492.0,9.789517065677568,9.716627327563597
493.0,10.061181671724551,11.647072046757334
494.0,10.178861788617885,9.476115544565584
495.0,9.098085496984002,9.526020006743845
496.0,8.323157618672962,7.654512757109137
497.0,6.372005544940242,5.856198718669215
498.0,7.50150237907909,5.948162301899517
499.0,7.543377917650144,6.358873777677869
500.0,9.464787756172493,8.100889813045596
501.0,11.086426136150763,8.420606196845378
502.0,8.289475853283879,6.897950620059196
503.0,7.217593945524708,5.954325428046907
504.0,9.149657187816118,5.11287699973774
505.0,8.08123524783635,4.915538945712038
506.0,8.360471694578697,4.567101270091042
507.0,6.987474242253944,4.2493256153759695
508.0,10.921264658499119,4.271377992581769
509.0,11.829642950807388,4.268517477801506
510.0,8.543853733468211,4.1200966617961114
511.0,7.940129631711065,4.017421602787456
512.0,9.126896706755087,4.807875313776179
513.0,11.615450901052789,5.271327413734967
514.0,11.241871791989809,5.8184331797235025
515.0,10.057450076804916,6.359293394777266
516.0,8.819354838709678,5.632411674347159
517.0,10.743631100082712,6.564610658159045
518.0,8.425194966323998,7.3072669266217645
519.0,7.460463336820536,9.204262888959978
520.0,9.717942881927932,8.32455847981025
521.0,11.446471440963965,7.206230852808352
522.0,9.410025851410587,7.184204413472706
523.0,9.170220298977181,10.315066876475216
524.0,9.239398111723052,9.34219118804091
525.0,8.853973249409911,8.486821400472069
526.0,8.101180173092054,6.945830055074744
527.0,10.625806451612902,5.292741935483871
528.0,10.615322580645161,4.7548387096774185
529.0,9.45564516129032,4.654032258064516
530.0,10.989516129032259,4.565322580645161
531.0,9.889516129032257,5.433870967741935
532.0,8.348387096774193,4.953225806451613
533.0,9.010483870967741,4.726612903225806
534.0,9.1294256490952,4.239122738001574
535.0,10.52139485219737,5.179411599415532
536.0,12.541995429170882,5.585270315836799
537.0,13.420767299838896,6.70242778464651
538.0,12.797834476040613,5.481623018995167
539.0,9.519032632722642,5.629144655501855
540.0,8.180023228803718,6.115544565583904
541.0,10.467030085047394,6.183657412610993
542.0,7.734667116256415,6.5557303960136375
543.0,11.174965344123487,7.501704694466299
544.0,10.155070997714585,5.9198231613652545
545.0,8.590124011839196,5.195159417031958
546.0,8.527241392229591,4.909774830467198
547.0,9.533205949571016,4.329849012775842
548.0,9.190206436626578,4.404971713311603
549.0,7.508182533438237,4.297049567269866
550.0,8.89240755310779,6.565676632572777
551.0,10.449429583005507,6.4590479937057435
552.0,8.884284028324155,8.593076317859952
553.0,8.624120922350663,8.98661260061732
554.0,12.134641106336622,8.26513950251165
555.0,10.651594746716697,9.72127942867518
556.0,9.05644253464867,7.494510682079525
557.0,9.144114264963989,6.687381226169582
558.0,9.80456333595594,5.930291109362706
559.0,9.003225806451614,6.096774193548387
560.0,7.097521636506688,6.180133752950432
561.0,9.129405979543666,5.856195908733281
562.0,8.88123524783635,5.888985051140834
563.0,8.376730920535012,5.615892997639654
564.0,6.582769472856019,4.884146341463414
565.0,7.548662470495673,4.919256490952007
566.0,8.84771833202203,5.789870180959873
567.0,7.242643587726199,5.656963021243115
568.0,6.6527930763178595,5.083792289535799
569.0,7.683576861114233,4.599799557903413
570.0,9.186867296092316,4.259193173728972
571.0,9.087070548124835,4.137611929114683
572.0,10.44322056123787,3.7922520699861373
573.0,7.967873065827432,4.70572477614177
574.0,7.568805964557342,4.129744108500993
575.0,6.5163538271327415,4.904349780824997
576.0,10.50207935259076,4.7779026638192645
577.0,8.815162414296953,6.0207373271889395
578.0,9.815449027762167,8.313830504664493
579.0,11.78491345397325,7.763827694728559
580.0,11.169472856018883,7.391188040912667
581.0,8.205428796223446,8.162785208497246
582.0,9.043548387096774,6.662903225806451
583.0,7.7992525570417,5.831667977970103
584.0,8.99720692368214,5.2529307631785995
585.0,10.872797010228167,5.507513768686073
586.0,9.476317859952793,6.237627852084973
587.0,8.799449252557043,6.776475216365067
588.0,8.572029897718332,7.282808811959087
589.0,9.86024783634933,8.109244689221086
590.0,9.138591660110148,7.212686860739575
591.0,11.50241935483871,6.967466561762391
592.0,9.195391705069124,5.9351541718182155
593.0,9.268858416694766,5.497643400397138
594.0,11.766870855344497,5.224319058858791
595.0,8.8926604473418,5.040837735566296
596.0,8.90766550522648,4.660690869581506
597.0,9.27677868944588,5.762279420029223
598.0,10.79508073882582,5.99567269866247
599.0,10.154096886590985,6.843655164662245
600.0,7.332752613240418,6.5024727436214445
601.0,10.598403956389793,6.265445281180922
602.0,8.376943539020644,5.345547188190776
603.0,6.735678693192462,5.0402008167547105
604.0,9.12296279644824,4.597055187141733
605.0,8.965336630324828,4.832044509385185
606.0,6.7905024165449035,4.2551159566895205
607.0,9.512978157431345,4.723742085347121
608.0,6.786858866284515,4.839605110336818
609.0,6.96355232100708,5.499449252557041
610.0,10.038945712037766,6.733556254917387
611.0,8.628874901652242,8.807474429583005
612.0,11.81168371361133,9.015853658536585
613.0,15.749390243902438,8.982926829268292
614.0,11.7573564122738,7.141463414634146
615.0,10.185523210070809,6.088827694728559
616.0,10.629110936270653,7.091856805664831
617.0,9.744531864673485,6.181254917387884
618.0,9.504523996852871,5.425708103855232
619.0,10.240165224232886,6.936644374508261
620.0,8.15125885129819,7.741286388670338
621.0,8.673210070810384,6.822659323367427
622.0,9.3897128245476,7.7303697875688435
623.0,11.692494661121726,7.363802405305159
624.0,11.283747330560864,6.669804428459031
625.0,12.818899629088456,6.094146903450602
626.0,13.901483646172867,6.928672586265033
627.0,11.685202877374397,7.4305046644936485
628.0,10.122324940991344,7.887372147915027
629.0,9.140676632572777,9.17104642014162
630.0,9.164358772619984,9.971046420141619
631.0,9.711132966168371,9.583792289535799
632.0,9.007808811959087,9.409520062942565
633.0,8.56774193548387,8.15861526357199
634.0,9.589142407553108,6.54390243902439
635.0,8.042800944138474,6.3234854445318645
636.0,8.57435090479937,6.161290322580645
637.0,10.686073957513768,6.872541306058222
638.0,12.424862313139261,6.143981117230528
639.0,10.54571203776554,8.641384736428009
640.0,10.718174665617623,9.192446892210857
641.0,10.6309205350118,10.38174665617624
642.0,11.640322580645162,10.5
643.0,10.84636113296617,10.51671911880409
644.0,10.843745082612116,7.301101494885916
645.0,10.551612903225806,6.256451612903225
646.0,12.00967741935484,6.505645161290323
647.0,8.230389457120378,7.149154209284028
648.0,7.834952793076318,7.278206136900079
649.0,7.79529897718332,7.389103068450039
650.0,8.686762391817465,9.905035405192761
651.0,12.643784421715184,8.72509834775767
652.0,11.66532258064516,7.0612903225806445
653.0,12.201612903225804,7.5774193548387085
654.0,11.522580645161288,6.998387096774193
655.0,13.903225806451612,6.528225806451612
656.0,11.059677419354838,6.42016129032258
657.0,10.895967741935483,7.741129032258064
658.0,12.122580645161289,6.798387096774194
659.0,14.13337922895358,6.945830055074744
660.0,15.73644767899292,7.346302124311565
661.0,14.867014162077105,8.473957513768685
662.0,12.15084579071597,6.711978756884343
663.0,9.834697088906372,6.434618410700236
664.0,13.420967741935485,5.941935483870968
665.0,15.684008654602675,7.40381589299764
666.0,12.37478082499719,6.756055411936607
667.0,10.402781836574125,6.103411262223222
668.0,12.265238282567157,5.973755198381477
669.0,10.700610692742872,6.117829980143119
670.0,10.725679067850585,5.858442920834738
671.0,9.62020156607096,5.7117605185268445
672.0,8.85423925667828,5.632670188453036
673.0,11.126175489865496,6.27188190775917
674.0,9.644040125885128,6.01597167584579
675.0,9.470810385523208,7.754760031471283
676.0,10.262234461054287,7.413099921321795
677.0,11.26955153422502,6.4494492525570415
678.0,12.373249409913452,6.236369000786782
679.0,12.054366640440598,6.2121361132966175
680.0,10.250570416994492,5.741955153422502
681.0,10.31601101494886,5.7770259638080255
682.0,12.613709677419354,5.6258064516129025
683.0,9.914164598842019,6.2223531844499576
684.0,9.47768615465311,5.302689180737961
685.0,10.356988238616879,5.119086525852851
686.0,10.14623605479231,5.536156166152232
687.0,10.330779317718736,7.415255502430955
688.0,8.62006294256491,6.10125885129819
689.0,9.879032258064516,6.643548387096773
690.0,8.951652242328874,5.986231313926043
691.0,8.99921321793863,6.006825334382376
692.0,7.037509834775767,6.171557828481511
693.0,10.809107002360346,5.411959087332809
694.0,8.838827694728561,5.314044059795437
695.0,8.656628638867033,5.730979543666404
696.0,9.29287962234461,5.852498033044847
697.0,7.968214004720692,6.616168371361132
698.0,8.281825334382376,7.5555271439811165
699.0,10.660267505900865,7.912037765538946
700.0,8.677498033044847,8.747600314712823
701.0,11.17258064516129,8.754838709677419
702.0,9.983064516129033,8.039516129032258
703.0,12.372580645161289,7.884677419354839
704.0,10.57258064516129,6.855645161290322
705.0,8.583870967741936,6.616935483870968
706.0,8.460483870967742,6.175
707.0,10.476612903225806,5.743548387096774
708.0,9.522501966955152,5.050472069236822
709.0,10.43705743509048,6.623623131392604
710.0,8.505625491738787,5.246085759244689
711.0,10.206038552321008,6.451671911880409
712.0,8.503422501966956,6.481077891424075
713.0,7.521970889063729,5.963198269079465
714.0,8.508162863886703,5.173131392604248
715.0,8.315774980330449,4.316404405979544
716.0,7.8196498819826905,4.339319433516915
717.0,10.429583005507475,4.8781274586939425
718.0,9.396969015773106,5.30103967629538
719.0,9.017570529391929,6.239997564722191
720.0,10.262414296954029,6.031692330748192
721.0,10.817281105990784,6.118049155145929
722.0,11.822940316960775,7.13791914877674
723.0,10.76249672174141,7.7946536285639345
724.0,13.43658536585366,6.955192761605035
725.0,13.551318796598103,6.604516503690382
726.0,12.045033906560263,5.934772020531266
727.0,10.82204488404331,5.585560675883256
728.0,13.693949271289949,6.051395601513619
729.0,13.187257877187069,4.928136825147053
730.0,11.780802517702597,4.840873328088119
731.0,12.907159716758457,4.270554681353265
732.0,12.113021243115657,5.548996852871754
733.0,10.412155782848151,7.803933910306844
734.0,8.625432730133753,7.213139260424862
735.0,8.066345397324941,7.129150275373721
736.0,7.615027537372148,6.678284815106215
737.0,7.276435877261998,6.792328874901652
738.0,7.408890637293469,6.470928402832415
739.0,9.457395751376868,5.106431943351692
740.0,9.276455546813532,5.990676632572777
741.0,10.15892997639654,7.616837136113297
742.0,11.360346184107001,7.410700236034618
743.0,10.835247836349332,6.571990558615264
744.0,10.473013375295043,6.46294256490952
745.0,10.058300550747443,7.817309205350117
746.0,10.775491738788356,7.606294256490951
747.0,11.645810385523209,7.627301337529504
748.0,12.79567269866247,6.628855232100708
749.0,11.214771833202203,6.271282454760032
750.0,12.25214398111723,6.034028324154209
751.0,11.502281667977972,5.671046420141621
752.0,9.716129032258063,5.141974822974035
753.0,10.918882769472855,4.944630212431156
754.0,10.400570416994492,4.750944138473643
755.0,10.1742525570417,7.076534225019669
756.0,12.290204563335957,7.077065302911093
757.0,10.294984264358773,6.2572580645161295
758.0,11.547501966955153,6.047678992918962
759.0,10.775767112509836,6.601258851298191
760.0,11.507474429583006,6.574822974036191
761.0,8.91675845790716,6.787018095987412
762.0,11.150432730133751,7.190047206923682
763.0,10.788434303697876,9.282041699449252
764.0,12.084539732494099,7.584972462627851
765.0,10.233064516129032,7.866129032258065
766.0,9.668548387096774,7.8072580645161285
767.0,9.666129032258064,6.775806451612903
768.0,11.089516129032258,5.736290322580645
769.0,8.904838709677419,6.0112903225806456
770.0,8.057258064516128,5.649193548387096
771.0,8.825,5.396774193548387
772.0,10.538709677419355,5.533870967741935
773.0,10.075,5.668548387096774
774.0,11.532258064516128,5.326612903225807
775.0,9.12016129032258,5.983064516129032
776.0,8.934677419354838,5.784677419354839
777.0,12.206451612903226,5.368548387096774
778.0,11.447954366640442,5.0962431156569625
779.0,10.369138473642801,5.099331235247836
780.0,13.81158536585366,5.281923682140047
781.0,12.122171331160317,7.073315911730546
782.0,12.384305571166312,6.792371960585966
783.0,9.387368401333784,6.746472593758196
784.0,9.489356899329362,6.0478625753999475
785.0,9.658161927241391,6.485182271177551
786.0,12.597130118766625,6.507721703945149
787.0,13.860956876849874,5.704450938518601
788.0,14.528481510621557,6.035405192761605
789.0,13.728992918961447,7.1380015735641225
790.0,11.760483870967743,6.838709677419354
791.0,10.393548387096775,6.461290322580645
792.0,10.17983870967742,5.731451612903225
793.0,10.629838709677419,6.427419354838709
794.0,9.25,6.437096774193548
795.0,10.544354838709676,6.648387096774193
796.0,10.246911880409126,6.234461054287962
797.0,9.308536585365854,5.604327301337529
798.0,9.91186073957514,5.104642014162077
799.0,11.045220298977183,7.445121951219512
800.0,11.048819826907947,6.941109362706531
801.0,11.167604248623132,6.397777340676633
802.0,9.176947285601887,7.531549960660897
803.0,8.837096774193547,7.240204563335956
804.0,10.052694728560187,9.393115656963023
805.0,9.4154602675059,9.392525570416995
806.0,9.055409126671911,7.65991345397325
807.0,12.295043273013375,6.3759244689221095
808.0,10.12588512981904,7.48300550747443
809.0,11.874350904799371,6.265892997639654
810.0,9.948642800944139,6.948328088119591
811.0,9.723111723052714,6.501180173092054
812.0,11.776475216365068,6.973170731707317
813.0,12.998308418568056,5.761801730920535
814.0,12.228992918961447,5.028481510621558
815.0,13.52016129032258,4.54516129032258
816.0,13.110483870967741,5.478225806451613
817.0,14.83467741935484,4.994354838709677
818.0,10.855645161290322,5.4282258064516125
819.0,9.770967741935484,4.941129032258065
820.0,7.9145161290322585,5.241935483870968
821.0,9.366935483870968,4.762903225806451
822.0,10.635867895545314,6.215092165898618
823.0,9.074385560675882,6.768433179723502
824.0,9.182757296466974,7.776958525345623
825.0,8.60580626428384,7.1734910644037315
826.0,9.927807125997527,5.92518639241692
827.0,12.330877449327488,5.885634670862839
828.0,11.293880896182234,7.168515604510883
829.0,9.01193660784534,6.762714023453599
830.0,11.112183882207486,6.788123337454573
831.0,9.73045783222809,6.478509609980892
832.0,9.890937019969277,5.661796111048668
833.0,182.22910344310816,5.943014499269417
834.0,240.4978082499719,6.0874826720617445
835.0,319.682065115582,5.760406129406916
836.0,260.06054475291296,8.534412348731783
837.0,180.70454460304973,8.440448091116856
838.0,110.96985875388708,6.3184219399797685
839.0,87.34513506425387,5.211232250571354
840.0,55.4604548349631,4.921696451987561
841.0,57.86555393203702,5.012775842044135
842.0,50.066033494436326,5.249091454048181
843.0,34.60095163163613,5.2875126447117005
844.0,23.102019407290847,5.5749503577985084
845.0,15.436214454310441,5.280693866846502
846.0,11.638248847926267,5.110449215091229
847.0,9.960675883256528,4.581491888651605
848.0,10.449338728410325,4.5537671874414585
849.0,8.46575999400547,4.996084822599379
850.0,9.371282454760031,4.585523210070811
851.0,9.098387096774193,4.92258064516129
852.0,7.416935483870967,4.833870967741936
853.0,9.557317073170733,5.113021243115657
854.0,8.975865460267507,4.671597167584579
855.0,8.039142407553108,4.126121164437451
856.0,10.651022816679781,4.223544453186467
857.0,9.171361132966169,4.8428009441384745
858.0,9.470416994492526,5.809284028324154
859.0,6.898671836948784,5.318133453223933
860.0,40.855787531377615,6.033260274999064
861.0,135.54646135401447,6.547083286501068
862.0,82.01359259675546,6.408474766775317
863.0,52.89987261623769,7.405338878273575
864.0,34.28780113146753,8.025096474467048
865.0,22.022932823798286,7.892386946910944
866.0,12.94287962234461,7.665932336742722
867.0,9.725806451612904,6.77741935483871
868.0,11.57016129032258,6.595967741935484
869.0,12.376612903225805,6.708870967741936
870.0,10.19274193548387,6.0814516129032254
871.0,9.129838709677419,6.237096774193548
872.0,9.120161290322581,5.526612903225806
873.0,9.551612903225806,5.226612903225806
874.0,11.736290322580645,4.657258064516128
875.0,11.659677419354837,5.555645161290322
876.0,10.446774193548386,6.854838709677419
877.0,9.030212431156569,6.483733280881196
878.0,8.884067663257277,6.05698269079465
879.0,8.58035948447042,6.131659548162302
880.0,8.347427971975572,6.700989097448579
881.0,8.193068824697463,6.52307519388558
882.0,8.001333782923084,7.682859390805889
883.0,8.349368701060282,7.99611104866809
884.0,9.980133752950433,9.349803304484658
885.0,9.760719905586154,7.332258064516129
886.0,9.74366640440598,6.3758064516129025
887.0,9.700786782061368,5.782159716758458
888.0,8.645554681353264,8.04874114870181
889.0,10.214516129032258,7.092741935483871
890.0,10.97983870967742,7.137096774193548
891.0,13.230645161290322,6.551612903225806
892.0,10.499193548387098,7.087096774193548
893.0,11.848878835562548,6.323937844217151
894.0,10.908713611329661,6.428501180173091
895.0,13.975727773406765,7.150944138473642
896.0,13.671965269191862,6.637722453261398
897.0,14.942660447341801,8.144372634970589
898.0,11.931597729571765,9.040715035030534
899.0,14.590887377767785,8.97215728148065
900.0,16.171653366303246,11.740110898804842
901.0,18.385365853658534,12.558457907159717
902.0,14.4837922895358,12.563335955940204
903.0,12.605625491738788,12.291266719118802
904.0,9.873387096774193,14.364516129032257
905.0,9.50241935483871,15.996774193548386
906.0,9.751612903225805,14.173387096774192
907.0,11.17983870967742,10.833870967741934
908.0,11.830645161290324,10.114516129032257
909.0,11.369354838709677,8.744354838709675
910.0,16.044472856018885,9.162686860739576
911.0,14.9933910306845,8.674429583005507
912.0,13.852891424075532,8.921931549960659
913.0,9.835405192761606,8.915538945712036
914.0,9.272541306058223,9.005350118017308
915.0,10.28198269079465,7.092525570416994
916.0,11.13729346970889,6.4056648308418564
917.0,10.924980330448467,7.236349331235248
918.0,10.191129032258065,7.370967741935484
919.0,8.295967741935483,7.79758064516129
920.0,10.56774193548387,6.677419354838709
921.0,10.689516129032258,6.92258064516129
922.0,9.136349331235248,10.493509047993705
923.0,11.16481117230527,11.960542879622345
924.0,9.128638867033832,8.45302911093627
925.0,12.138512981904011,7.078933910306844
926.0,11.280526135286166,7.4874094696281945
927.0,14.202418850491235,6.264161068409691
928.0,13.686050757529907,6.2364415547735765
929.0,14.728941979866448,6.249692059841548
930.0,13.340051241703485,8.659975848960901
931.0,11.650406504065042,8.294290210183206
932.0,8.521505376344088,6.822676182983027
933.0,8.945318646734854,7.373741148701809
934.0,8.590873328088119,7.098662470495672
935.0,9.623682140047208,6.754130605822187
936.0,11.436152635719905,6.371164437450826
937.0,11.405979543666405,6.389614476789928
938.0,10.937844217151849,6.4540519276160495
939.0,8.567663257277733,6.667230527143981
940.0,8.924154209284028,6.3505507474429574
941.0,9.75121951219512,7.030507474429583
942.0,8.991738788355626,5.902753737214791
943.0,10.779110936270651,5.903619197482298
944.0,10.33361526357199,6.118292682926829
945.0,9.18320220298977,5.479268292682926
946.0,9.203324154209284,4.97016129032258
947.0,8.712549173878834,5.465322580645161
948.0,10.515952006294256,6.120967741935484
949.0,12.339024390243901,6.351612903225806
950.0,10.271557828481509,6.11648308418568
951.0,11.437903225806451,5.771774193548387
952.0,10.889516129032259,6.119354838709677
953.0,8.549193548387096,6.615322580645161
954.0,10.912903225806451,6.466129032258064
955.0,11.582258064516129,5.964516129032258
956.0,12.918548387096774,7.243548387096775
957.0,11.782140047206923,6.413099921321793
958.0,14.398387096774194,5.7607985837922895
959.0,14.468548387096774,5.978383162863887
960.0,13.79874114870181,5.896951219512195
961.0,14.696144767899291,6.257749803304485
962.0,15.679779701022817,6.031943351691581
963.0,12.306294256490952,5.629346970889063
964.0,9.545082612116445,5.863060582218725
965.0,8.69032258064516,6.308870967741935
966.0,9.978225806451613,6.724193548387096
967.0,10.400806451612905,7.616935483870968
968.0,13.504032258064516,8.162903225806451
969.0,13.399999999999999,7.350806451612903
970.0,11.618961447678991,6.361585365853658
971.0,9.62560975609756,5.9174862313139265
972.0,10.18691974822974,8.286270653029112
973.0,12.681881533101045,6.806268967067551
974.0,11.52319883106665,6.201118354501517
975.0,14.661914128357873,6.4196779813420255
976.0,10.418860289985387,5.933629313251657
977.0,9.694009216589862,4.744470046082949
978.0,9.35,5.02016129032258
979.0,9.59032258064516,5.580645161290322
980.0,11.299193548387096,5.729032258064516
981.0,9.368548387096773,5.834677419354838
982.0,9.53225806451613,5.191935483870967
983.0,10.088709677419356,5.8782258064516135
984.0,9.504838709677419,5.898387096774194
985.0,10.075806451612902,5.976612903225806
986.0,8.634677419354839,5.873387096774193
987.0,11.09032258064516,5.625
988.0,9.567741935483872,5.855645161290322
989.0,9.916935483870969,6.251612903225807
990.0,9.082258064516129,5.944354838709677
991.0,10.373387096774191,5.937096774193549
992.0,12.762450826121164,5.840558615263571
993.0,10.727596380802517,6.383182533438237
994.0,11.153245476003146,6.760582218725413
995.0,12.126848937844215,7.544079464988198
996.0,15.268568056648308,7.893627065302911
997.0,13.508792289535798,7.152557041699449
998.0,13.447042074107376,8.503390656026376
999.0,13.468322655576786,9.60533513169233
1000.0,10.817953617324191,10.863249784571579
1001.0,13.729946423888201,8.556367314825222
1002.0,13.272863512045259,6.755760368663594
1003.0,13.724251620396387,6.468266456858117
1004.0,11.905136562886366,6.430369787568843
1005.0,11.445487242890861,6.999606608969315
1006.0,9.884698962196996,7.162002173017122
1007.0,9.019999250683751,7.010033344573077
1008.0,10.785058633996478,6.797070173466712
1009.0,10.50558615263572,5.8223446105428796
1010.0,9.79952793076318,5.04492525570417
1011.0,10.012903225806452,5.269354838709678
1012.0,7.659677419354839,6.421774193548387
1013.0,7.316935483870968,6.098387096774193
1014.0,10.048387096774194,5.757258064516129
1015.0,8.799193548387096,6.356451612903225
1016.0,9.216129032258063,6.753225806451613
1017.0,11.630645161290323,5.783870967741935
1018.0,10.105979543666404,5.530094413847364
1019.0,11.343823760818253,5.52295436664044
1020.0,10.836506687647521,6.376789929189615
1021.0,8.322516016634822,5.765123075193886
1022.0,8.545532201865797,5.655142182758233
1023.0,9.63185343374171,5.258334269978644
1024.0,8.058098235360234,5.649938181409464
1025.0,8.663824884792627,5.6246543778801845
1026.0,10.84525963808025,5.5102871754524
1027.0,9.781904012588512,4.807966168371362
1028.0,9.467564909520062,6.015676632572777
1029.0,8.832572777340676,6.742918961447678
1030.0,10.808221872541306,8.51904012588513
1031.0,9.46508654602675,6.652517702596381
1032.0,9.495043273013376,6.626450863586977
1033.0,12.40401258851298,5.551954778764377
1034.0,10.8919551534225,5.778170544378255
1035.0,10.983477576711252,5.099569143156869
1036.0,12.15837922895358,4.485189764340039
1037.0,12.377576711250983,5.040597954366641
1038.0,10.65456333595594,5.001573564122738
1039.0,9.344354838709677,4.880645161290323
1040.0,9.377084972462626,4.682415420928403
1041.0,9.366365066876474,4.7170141620771044
1042.0,10.455763178599526,5.996813532651455
1043.0,11.725865460267505,6.312116443745082
1044.0,9.926239181746656,7.246380802517702
1045.0,7.481451612903226,5.499193548387096
1046.0,9.626612903225805,5.795967741935483
1047.0,7.762096774193548,6.562096774193549
1048.0,7.763709677419354,7.523387096774194
1049.0,8.458910306845002,7.5842446892210855
1050.0,8.01066089693155,6.979071597167585
1051.0,7.014103068450039,6.274724626278521
1052.0,8.518745082612115,6.064378442171519
1053.0,9.550904799370574,5.851140833988985
1054.0,10.550904799370574,6.079464988198269
1055.0,12.569315499606608,6.3245476003147125
1056.0,11.471911880409126,6.785798583792289
1057.0,11.408536585365853,8.188060582218725
1058.0,12.283300550747443,9.02104642014162
1059.0,13.471911880409126,7.303461841070023
1060.0,11.714694091641377,6.175709040500542
1061.0,12.124852946686149,5.56503784047057
1062.0,11.454361957214042,4.887760855719156
1063.0,12.41030309842269,5.764752163650668
1064.0,12.899329361957214,5.578992918961448
1065.0,11.288374358397961,6.553705368850924
1066.0,10.294777265745008,6.4732334869431645
1067.0,11.437711213517666,5.927342549923194
1068.0,9.555030721966206,5.229185867895545
1069.0,9.696466973886327,5.0823348694316435
1070.0,12.24032258064516,5.337096774193548
1071.0,11.948092053501181,5.385955940204563
1072.0,12.519472856018883,5.2125098347757675
1073.0,14.171833202202988,5.215932336742723
1074.0,10.110326514555467,5.133949645948073
1075.0,7.993469708890638,5.250039339103068
1076.0,9.73906372934697,5.293784421715185
1077.0,9.548996852871753,5.0041699449252555
1078.0,11.800708103855232,6.1730527143981115
1079.0,11.865342250196695,5.869610542879622
1080.0,11.175413060582219,6.048111723052714
1081.0,9.866935483870968,7.505645161290323
1082.0,11.606451612903225,6.90241935483871
1083.0,8.324193548387097,6.159677419354839
1084.0,8.424193548387096,5.519354838709678
1085.0,13.051612903225806,4.956451612903226
1086.0,11.508870967741935,4.258064516129032
1087.0,9.506510621557828,3.6269669551534225
1088.0,9.22220692368214,4.950983477576711
1089.0,11.118725413060583,6.22336742722266
1090.0,8.325530141246114,6.529924881046045
1091.0,6.318970814132105,5.999531677344423
1092.0,6.749178562062118,5.807397624667491
1093.0,8.871904387246637,5.245063879210221
1094.0,9.260499793938031,5.148102356599603
1095.0,9.902753737214791,4.839181746656176
1096.0,9.524154209284028,4.616129032258064
1097.0,9.420220298977183,4.463926042486231
1098.0,12.817112509834773,4.270515342250196
1099.0,14.10936270653029,4.671951219512195
1100.0,14.880645161290323,4.7165420928402835
1101.0,12.557159716758457,4.666129032258064
1102.0,9.100275373721479,4.9568450039339105
1103.0,8.371163500805515,5.570550934772021
1104.0,7.691394102881121,5.0448840433104785
1105.0,9.34704582068862,4.842044134727062
1106.0,8.159754224270353,5.430856843130643
1107.0,6.477359409538796,6.128016934547226
1108.0,8.083646172867258,5.2816005395077
1109.0,9.279431268967066,5.083758570304598
1110.0,11.969669551534224,4.505704169944925
1111.0,10.464299763965382,3.7306648308418566
1112.0,10.070456333595594,4.246380802517702
1113.0,10.737903225806452,4.063709677419355
1114.0,9.924193548387096,3.979032258064516
1115.0,11.69516129032258,3.887096774193548
1116.0,8.46532258064516,3.765322580645161
1117.0,10.053225806451612,3.637096774193548
1118.0,9.614594807238396,5.5321990558615255
1119.0,11.054681353265146,5.157553107789142
1120.0,10.961211644374508,5.446518489378442
1121.0,9.951357199055863,5.9755704169944925
1122.0,10.638447416732232,6.481986437375895
1123.0,10.434644636768947,5.226201715934209
1124.0,11.946511932861265,6.407357348919112
1125.0,9.474062418043536,5.976662545427297
1126.0,8.646236559139785,5.439708141321044
1127.0,8.501612903225805,5.963709677419354
1128.0,8.857336742722266,5.673013375295043
1129.0,10.732985837922895,4.956294256490952
1130.0,11.608772619984265,5.082572777340676
1131.0,8.632612116443745,6.667899291896144
1132.0,11.267348544453187,5.998583792289535
1133.0,8.878127458693942,6.138945712037765
1134.0,8.301376868607395,6.675295043273013
1135.0,8.307651455546813,6.614594807238395
1136.0,7.969321119478476,8.509179124049306
1137.0,7.464204226143644,8.71249672174141
1138.0,10.285377093402271,6.949383687385261
1139.0,10.484133228429059,6.100221048293432
1140.0,9.97046944662995,5.732171893147503
1141.0,8.362721516616087,5.884313064328801
1142.0,10.308407328312914,6.056670787906036
1143.0,11.810615937956616,5.486085197257503
1144.0,9.654539919823161,6.9830579596118545
1145.0,8.099329361957214,5.985077366902701
1146.0,11.153205200254767,5.75752688172043
1147.0,11.965310404256115,5.433173166985126
1148.0,12.748784234386122,5.682312389944176
1149.0,12.45833988985051,5.789850511408339
1150.0,11.902812745869394,5.898151062155783
1151.0,13.145357985837922,7.440204563335955
1152.0,10.94758064516129,5.727419354838709
1153.0,12.068548387096772,5.116935483870968
1154.0,10.900904799370574,4.979799370574351
1155.0,11.824645948072384,5.554819040125885
1156.0,10.202741560825746,6.0751245738263835
1157.0,9.82274174815481,5.5399816417519006
1158.0,10.461908508486006,6.420106028249222
1159.0,11.971316173991234,6.152617923644674
1160.0,11.922754861189166,6.061389606983626
1161.0,11.837365591397848,6.183592784084523
1162.0,10.308602150537634,5.16639316623581
1163.0,13.903225806451614,4.557159716758457
1164.0,11.432808811959088,4.571262785208497
1165.0,12.879307631785995,4.692486231313926
1166.0,9.670967741935485,4.9927419354838705
1167.0,10.370967741935484,5.616129032258064
1168.0,9.680645161290322,5.05241935483871
1169.0,10.4213217938631,6.29110936270653
1170.0,8.971380802517702,7.095653029110936
1171.0,7.979150275373721,6.7727183320220306
1172.0,10.754091266719119,7.31256884343037
1173.0,10.505271439811171,7.300236034618411
1174.0,9.344610542879622,6.846262785208497
1175.0,11.076632572777342,7.516601101494886
1176.0,10.870967741935484,7.474193548387097
1177.0,9.115322580645161,6.217741935483871
1178.0,11.450806451612904,5.431451612903226
1179.0,11.191935483870967,7.605645161290323
1180.0,8.553225806451612,7.464516129032258
1181.0,8.170967741935485,8.309677419354838
1182.0,8.995967741935484,6.666935483870968
1183.0,7.103225806451613,6.2508064516129025
1184.0,8.43719512195122,7.287214791502754
1185.0,7.846007081038552,6.961723052714397
1186.0,8.084773893821888,6.246529729122177
1187.0,9.04641920497546,6.138990671012701
1188.0,10.898804840582969,6.748604398486381
1189.0,15.022179760968118,7.406166872728635
1190.0,15.330130006369188,7.1956876849874485
1191.0,12.881158442920835,6.414776516428758
1192.0,11.843411636881346,6.459158517852459
1193.0,10.622934697088906,6.380500917912404
1194.0,10.64608575924469,6.7374573826383415
1195.0,6.787096774193548,6.579596118541831
1196.0,8.929583005507475,6.786021505376344
1197.0,10.10680566483084,6.66209021767637
1198.0,9.432041699449254,5.922836349331234
1199.0,8.655940204563336,5.25940204563336
1200.0,8.416404405979545,4.7581038552321
1201.0,8.159008654602674,5.111959087332808
1202.0,8.788080251770259,6.295712037765538
1203.0,7.865322580645161,8.212372147915028
1204.0,11.029838709677419,7.228265145554682
1205.0,9.69516129032258,7.337922895357986
1206.0,8.692741935483872,6.238119590873328
1207.0,6.929032258064516,5.734382376081825
1208.0,8.26774193548387,5.9191974822974025
1209.0,9.133870967741935,5.827419354838709
1210.0,7.929032258064516,5.35
1211.0,8.240322580645161,5.043548387096774
1212.0,8.744354838709679,5.068548387096774
1213.0,7.108870967741936,5.517741935483871
1214.0,8.204032258064515,5.724193548387097
1215.0,7.837903225806452,5.27258064516129
1216.0,11.136290322580646,5.282258064516129
1217.0,9.701062155782848,5.504583005507474
1218.0,9.882789142407553,5.946243115656962
1219.0,9.13937844217152,6.851750590086546
1220.0,11.714044059795436,7.244826907946498
1221.0,9.872344610542878,6.711526357199055
1222.0,11.628225806451614,6.192741935483871
1223.0,12.312096774193549,6.167741935483871
1224.0,10.252419354838707,5.579032258064516
1225.0,11.015322580645162,5.558064516129032
1226.0,9.787903225806453,5.544354838709677
1227.0,7.235483870967742,5.158064516129032
1228.0,5.745161290322581,5.073387096774193
1229.0,11.55228166797797,4.859244689221086
1230.0,11.803137761792364,5.28860851972575
1231.0,9.867520887190437,5.273906934921884
1232.0,9.847470121014574,6.559534112622233
1233.0,13.173331834700836,5.9212993143756325
1234.0,11.743550260387398,6.124221647746431
1235.0,43.367781274586946,5.615106215578285
1236.0,61.16854838709678,4.941935483870967
1237.0,48.686290322580646,4.4362903225806445
1238.0,32.49219118804091,4.688532651455546
1239.0,23.352498033044846,5.616778127458694
1240.0,16.76750590086546,6.930291109362706
1241.0,12.152301337529504,6.118371361132966
1242.0,9.327398748641864,5.46390918287063
1243.0,10.040567981716684,5.358626503315724
1244.0,10.936098310291857,5.330768798471395
1245.0,10.433430744445694,5.65594301449927
1246.0,9.898973436738977,5.6977295717657634
1247.0,11.40455584279345,5.7578509609980895
1248.0,10.460735828556441,6.079948297178824
1249.0,9.794153459967779,5.841686336218201
1250.0,10.853803716608596,6.0459415158667715
1251.0,9.656494698587538,6.039994754786258
1252.0,9.951826458356749,6.0105503727848335
1253.0,10.763482072608744,5.583953392529317
1254.0,8.304720692368214,5.697797010228166
1255.0,8.270849724626277,5.922383949645948
1256.0,9.978068450039338,7.131530291109362
1257.0,10.726514555468135,6.629110936270653
1258.0,10.043936158255592,6.192360720842231
1259.0,10.225744633022366,7.521829455621744
1260.0,8.679217713836124,6.443782548424562
1261.0,10.207822861638755,6.562961297815743
1262.0,11.100370911543218,7.198475141433442
1263.0,10.420928402832416,6.452399685287174
1264.0,10.382376081825335,9.026750590086547
1265.0,9.540047206923683,7.807081038552321
1266.0,10.52918961447679,9.820771046420141
1267.0,11.4198269079465,9.313926042486232
1268.0,11.60456333595594,7.58426435877262
1269.0,11.016129032258064,7.606451612903226
1270.0,12.878225806451614,6.910483870967742
1271.0,12.39516129032258,6.221774193548386
1272.0,9.728225806451611,5.498387096774193
1273.0,11.049193548387096,6.332258064516129
1274.0,9.046774193548387,6.615322580645161
1275.0,9.153225806451614,6.252419354838709
1276.0,10.010483870967743,6.453225806451613
1277.0,10.785483870967742,5.986290322580645
1278.0,10.41778127458694,5.798760818253344
1279.0,11.198996852871755,6.6145948072383955
1280.0,10.17006294256491,7.986329661683714
1281.0,8.457612116443745,8.066955153422501
1282.0,8.044531864673486,6.654445318646735
1283.0,6.271911880409126,6.590794649881982
1284.0,7.035483870967742,6.633870967741935
1285.0,8.234677419354838,6.187096774193548
1286.0,7.580645161290323,6.640322580645162
1287.0,8.310483870967742,6.809677419354839
1288.0,11.20241935483871,7.790322580645161
1289.0,11.981648308418567,6.720220298977184
1290.0,10.432356412273801,7.162529504327301
1291.0,12.05993780675134,6.255899928814957
1292.0,9.988033419504703,7.235611254730059
1293.0,9.711528230489678,7.336162002173017
1294.0,7.648447042074107,6.282951182046382
1295.0,11.422610617811248,6.774540107152224
1296.0,12.781197782023902,5.794720130381027
1297.0,9.255921471657112,5.75905361357761
1298.0,8.796163500805514,6.565394702334119
1299.0,9.323809523809523,7.2884408602150526
1300.0,10.65222734254992,6.494623655913978
1301.0,10.298387096774192,7.104838709677419
1302.0,9.42983870967742,6.929838709677419
1303.0,10.076612903225808,6.171774193548387
1304.0,10.016935483870967,6.2612903225806456
1305.0,9.823937844217152,6.5123328088119585
1306.0,11.084952793076319,6.578343823760818
1307.0,11.133556254917387,6.567014162077104
1308.0,9.939457120377654,5.511487018095988
1309.0,12.75763178599528,7.194453186467348
1310.0,11.534598741148702,7.605094413847365
1311.0,11.234146341463415,7.899449252557041
1312.0,8.909047993705743,7.353579858379229
1313.0,9.035090479937057,7.55279307631786
1314.0,8.8639653815893,8.74539732494099
1315.0,11.718371361132967,7.731077891424075
1316.0,8.778933910306844,7.23375295043273
1317.0,11.103973249409913,7.7747049567269855
1318.0,10.46498819826908,6.5586152635719905
1319.0,11.810872578771871,6.056610842606122
1320.0,10.506537784271853,5.285976546401408
1321.0,10.293207448203514,7.830092540556741
1322.0,9.526934172567532,7.588138323779551
1323.0,7.865748754261736,6.186673410512906
1324.0,10.168131579933311,5.68290809636207
1325.0,10.962901352515829,5.6376774942864625
1326.0,8.495121951219511,6.7823564122738
1327.0,8.170102281667978,5.827694728560188
1328.0,8.275845790715971,6.059008654602675
1329.0,8.72360346184107,6.003776553894571
1330.0,8.818528717545238,6.650983477576711
1331.0,10.864909520062941,6.099685287175452
1332.0,10.428914240755311,6.1800550747442955
1333.0,8.654504327301337,6.937706530291109
1334.0,9.558300550747443,6.482966168371361
1335.0,11.446892210857593,6.737549173878836
1336.0,9.892800944138473,6.942564909520063
1337.0,9.302419354838708,7.2548387096774185
1338.0,8.15241935483871,8.42016129032258
1339.0,7.959677419354839,7.429032258064517
1340.0,9.805645161290322,6.840322580645161
1341.0,10.607199055861525,7.4220889063729345
1342.0,10.194728560188828,8.983221872541305
1343.0,10.107041699449253,8.91862706530291
1344.0,10.359166011014949,8.871813532651455
1345.0,14.216679779701021,7.418568056648308
1346.0,12.925806451612903,7.554838709677419
1347.0,12.525,8.78306451612903
1348.0,14.166935483870969,9.112903225806452
1349.0,12.423387096774194,7.589516129032258
1350.0,12.955645161290324,6.4467741935483875
1351.0,12.697875688434305,5.8183123524783635
1352.0,10.132553107789143,5.819059795436664
1353.0,7.382317073170732,5.451455546813532
1354.0,7.874606608969315,5.912136113296617
1355.0,6.752875501105241,5.327938256341088
1356.0,11.279427522385824,5.559641826833015
1357.0,9.089595743883706,5.65157543741336
1358.0,10.348417069424151,6.186763328462778
1359.0,8.999385560675883,6.71973886328725
1360.0,9.333870967741936,6.070161290322581
1361.0,9.42016129032258,5.445161290322581
1362.0,9.333870967741934,5.236290322580645
1363.0,8.508870967741935,4.820161290322581
1364.0,7.059677419354839,5.8032258064516125
1365.0,12.433870967741935,5.033870967741935
1366.0,8.899193548387096,4.967741935483871
1367.0,7.153225806451613,5.073387096774193
1368.0,7.944905586152636,4.881510621557828
1369.0,6.486742722265932,4.609598741148702
1370.0,9.493745082612117,4.438434303697876
1371.0,9.807164399985012,5.1017824360271256
1372.0,8.993855606758833,5.425724026825522
1373.0,9.112247574088645,4.8984676482709535
1374.0,8.049829530553371,5.663631935858529
1375.0,8.427196433254656,5.008133827882058
1376.0,7.188175789591996,4.8244202165523955
1377.0,9.940901427447454,5.416537409613728
1378.0,10.713257277734067,5.507789142407553
1379.0,9.373937844217151,4.917151848937844
1380.0,10.333733280881194,5.4600118017309205
1381.0,9.597915027537372,4.861054287962235
1382.0,9.329819040125884,4.700393391030684
1383.0,9.66726986624705,6.427301337529503
1384.0,8.096307744183433,6.1290153984489155
1385.0,8.550120827245138,7.991336967517141
1386.0,8.26256041362257,8.597055187141732
1387.0,7.1179049117680115,8.290659772957177
1388.0,6.040463077441834,7.37625042149039
1389.0,7.252182383574988,8.58405455022292
1390.0,11.750717470308341,6.754419092578022
1391.0,11.34821475403694,6.7056910569105685
1392.0,9.66647559102319,5.896747967479675
1393.0,9.653851485519464,5.772370836611591
1394.0,9.865558615263572,5.827045633359559
1395.0,9.564634146341461,6.715538945712037
1396.0,10.14274193548387,7.662096774193548
1397.0,11.188709677419354,7.90241935483871
1398.0,12.808870967741935,6.285483870967742
1399.0,10.139516129032257,6.994354838709677
1400.0,9.910483870967742,6.498387096774193
1401.0,11.388709677419355,5.679032258064516
1402.0,8.789516129032258,6.077419354838709
1403.0,8.960739575137687,6.298859166011015
1404.0,8.590853658536584,8.729268292682926
1405.0,9.967859952793075,6.721813532651456
1406.0,8.493607395751377,5.500019669551534
1407.0,11.460110149488592,6.528638867033831
1408.0,15.309205350118019,6.295554681353265
1409.0,13.857828481510623,5.640519276160504
1410.0,13.353225806451613,6.046774193548387
1411.0,9.850806451612904,5.663709677419355
1412.0,10.541935483870969,6.374999999999999
1413.0,13.212096774193547,6.650806451612903
1414.0,11.493823760818252,6.477183320220299
1415.0,9.74502360346184,6.232140047206924
1416.0,12.096203776553894,6.669472856018883
1417.0,11.555763178599527,7.542800944138474
1418.0,11.940361919748229,7.159716758457908
1419.0,12.06774193548387,7.330841856805664
1420.0,10.937883556254917,5.897521636506687
1421.0,11.627084972462628,5.635070810385523
1422.0,12.151848937844216,7.030841856805665
1423.0,10.481746656176238,6.902832415420929
1424.0,10.70987411487018,6.208457907159717
1425.0,8.96532258064516,5.766935483870967
1426.0,9.94758064516129,5.5572580645161285
1427.0,11.17016129032258,5.933064516129032
1428.0,12.099193548387097,5.683064516129032
1429.0,11.717741935483872,5.629032258064516
1430.0,12.295967741935483,5.929032258064517
1431.0,13.347836349331235,6.113473642800944
1432.0,14.178088119590873,6.478697875688434
1433.0,15.23975216365067,6.612883556254917
1434.0,10.70603199580383,6.632805065377842
1435.0,11.135274062418043,6.519628339140533
1436.0,12.00902176763703,6.217721329287025
1437.0,11.002465250458956,6.276130530890562
1438.0,9.627117755048518,5.765366602974785
1439.0,9.737522011164812,4.926462103330711
1440.0,11.081664231388858,5.611618148439549
1441.0,10.854915514592934,4.852150537634408
1442.0,10.03794162826421,5.213978494623656
1443.0,8.404454685099847,4.586021505376344
1444.0,8.58961447678993,4.177025963808025
1445.0,9.935877261998426,4.743784421715185
1446.0,9.391364130231164,6.286523547263123
1447.0,10.288424000599452,6.885197257502528
1448.0,8.45041399722753,5.946438874526994
1449.0,10.150856093814394,6.172668689820538
1450.0,8.144507511895396,8.367923644674235
1451.0,12.161516054100634,7.471024877299464
1452.0,12.20816754711326,6.498523846989622
1453.0,13.610228166797796,7.246420141620771
1454.0,12.418804091266718,7.146813532651455
1455.0,10.941778127458694,6.577970102281668
1456.0,12.439417781274587,5.888906372934697
1457.0,10.487136113296618,6.647915027537373
1458.0,8.515342250196696,6.5642800944138475
1459.0,8.269866247049567,5.7752950432730135
1460.0,7.622580645161291,5.5756097560975615
1461.0,6.075806451612904,5.477419354838709
1462.0,8.55,5.704032258064515
1463.0,6.294354838709677,5.456451612903225
1464.0,6.448387096774193,6.066129032258065
1465.0,6.233064516129032,7.010483870967742
1466.0,6.638709677419355,5.8959677419354835
1467.0,8.543214004720692,7.484185680566483
1468.0,10.617977970102281,6.896125098347758
1469.0,9.601730920535012,7.4186270653029105
1470.0,10.405881195908734,7.44697088906373
1471.0,7.746616837136113,6.969433516915815
1472.0,7.9626081825334385,5.5851101494885915
1473.0,9.131018882769473,6.933674272226593
1474.0,10.437226031246487,6.571368626128658
1475.0,10.70523772057997,7.06735229103443
1476.0,9.78574238507362,7.145949945674571
1477.0,7.934000224794875,8.496362069611479
1478.0,6.9998089243565245,9.68980180585216
1479.0,8.473406766325727,9.337450826121165
1480.0,7.491935483870968,9.230645161290322
1481.0,8.856451612903225,9.699193548387097
1482.0,9.037136113296615,9.238001573564123
1483.0,10.134697088906371,7.644807238394964
1484.0,9.44799370574351,6.517564909520063
1485.0,8.708005507474429,5.970003933910307
1486.0,8.583280881195908,6.196223446105428
1487.0,9.34451219512195,5.936742722265933
1488.0,9.999003409388932,6.776205462515454
1489.0,9.792263309729872,7.529133415758121
1490.0,12.600537634408601,6.81075081488142
1491.0,10.975878573301863,6.203172417668877
1492.0,11.157697351167059,5.872957176576374
1493.0,9.084225019669551,5.369197482297404
1494.0,9.02016129032258,6.010483870967741
1495.0,11.039516129032258,6.275
1496.0,10.568410700236033,5.9673092053501176
1497.0,9.940656963021244,6.842525570416994
1498.0,9.307022029897718,6.360778914240755
1499.0,8.03133359559402,5.898131392604249
1500.0,8.371715184893784,5.863178599527931
1501.0,10.292466561762392,6.025216365066877
1502.0,10.982120377655388,5.960188827694728
1503.0,12.099390243902437,5.554504327301338
1504.0,9.917584579071598,6.792800944138474
1505.0,7.8759581881533105,8.451047169457869
1506.0,9.860087670001125,6.958411074894158
1507.0,10.265527705968303,6.170334569705144
1508.0,9.683196583117905,5.724349031508748
1509.0,9.143093177475553,5.495219362331872
1510.0,7.727537372147914,6.044767899291896
1511.0,7.827419354838709,5.308064516129032
1512.0,7.681333595594021,5.0594610542879614
1513.0,10.023898505114083,5.088237608182533
1514.0,12.283781049792065,4.178258589037504
1515.0,10.427374395863774,4.239129294518751
1516.0,11.529167134989322,4.210595331759769
1517.0,11.545464763403395,4.205218987673748
1518.0,11.006500318459405,4.2688453036604095
1519.0,8.233280881195908,4.771903450601326
1520.0,10.73957513768686,5.172979656063841
1521.0,10.631785995279309,5.212768348881646
1522.0,10.267505900865459,5.244857817241767
1523.0,10.603667903038478,5.37197931887153
1524.0,9.816679779701023,4.981117230527143
1525.0,8.498819826907948,5.447678992918961
1526.0,6.762549173878835,5.194492525570417
1527.0,8.433674272226593,4.8223446105428796
1528.0,8.622816679779703,4.916286388670338
1529.0,9.857749803304486,5.222501966955154
1530.0,8.901337529504328,4.857513768686074
1531.0,9.50228166797797,4.994079464988198
1532.0,9.434815106215577,4.665617623918175
1533.0,9.748406766325727,5.684028324154209
1534.0,7.625413060582218,5.243627065302911
1535.0,7.375177025963808,4.8325137686860735
1536.0,7.617427222659323,4.836821400472068
1537.0,8.173387096774192,4.245161290322581
1538.0,9.20241935483871,4.763709677419355
1539.0,9.812903225806451,5.594354838709677
1540.0,10.752419354838711,6.816129032258064
1541.0,8.977419354838709,5.975
1542.0,11.134677419354839,5.212096774193547
1543.0,8.731451612903225,4.791129032258064
1544.0,8.52258064516129,4.654032258064516
1545.0,11.534293394777265,5.1607910906298
1546.0,11.963269526172752,5.819487770294222
1547.0,10.653881025871584,6.388333578302107
1548.0,11.554930284768993,6.320681344619189
1549.0,11.725333805978966,7.399914405028488
1550.0,12.893135974961307,6.603473369012315
1551.0,13.903113409014274,7.100370911543216
1552.0,13.936607845341126,5.919186242553669
1553.0,13.882938069012027,5.717264246375183
1554.0,9.964280094413848,6.104484657749802
1555.0,9.322895357985837,5.1650668764752155
1556.0,6.706136900078677,5.660582218725414
1557.0,7.3622738001573556,5.217309205350118
1558.0,7.600806451612902,4.622580645161291
1559.0,7.119354838709677,4.837903225806452
1560.0,6.1137096774193544,5.111290322580645
1561.0,8.585483870967742,5.3072580645161285
1562.0,8.76787962234461,6.655291109362706
1563.0,8.131766325727773,5.225727773406766
1564.0,7.984834775767112,4.608025177025963
1565.0,9.044256490952005,4.9746066089693155
1566.0,8.562182008916864,5.015701921996179
1567.0,8.446187156545234,4.973040429096821
1568.0,8.797444483071988,6.1387625434233115
1569.0,10.42775449960051,5.75284901364714
1570.0,10.292083386700334,6.158013806587535
1571.0,10.627224489049091,5.474629023109436
1572.0,10.378009441384735,5.627183320220299
1573.0,8.048721479150274,5.136250983477576
1574.0,9.728796223446105,4.68869000786782
1575.0,10.48133359559402,5.7229740361919745
1576.0,8.781392604248623,5.661487018095988
1577.0,7.828225806451613,4.841129032258065
1578.0,10.194354838709677,5.866935483870968
1579.0,9.196774193548386,5.406451612903226
1580.0,9.062903225806451,4.7344020456333595
1581.0,8.854032258064516,5.167604248623132
1582.0,7.114516129032258,5.743882769472855
1583.0,7.693548387096774,6.000570416994492
1584.0,10.667741935483871,6.3660110149488585
1585.0,10.737096774193548,6.4967741935483865
1586.0,10.894354838709678,6.190322580645161
1587.0,10.634264358772619,6.896793863099921
1588.0,10.059067663257277,6.869767899291896
1589.0,11.328324154209284,7.223996852871754
1590.0,12.187549173878836,6.5128048780487795
1591.0,10.278048780487804,6.090676632572777
1592.0,7.838709677419353,6.923387096774194
1593.0,10.889516129032257,6.229032258064516
1594.0,9.899193548387096,7.044354838709678
1595.0,8.12663257277734,6.134756097560976
1596.0,8.42661239887833,5.728533962758982
1597.0,7.308683854828622,5.584270915289798
1598.0,7.4223198975165925,6.894190925780225
1599.0,6.765595432629264,5.901127720954628
1600.0,6.786652948415339,6.220823498557566
1601.0,11.330133752950434,6.2630999213217935
1602.0,10.262313139260424,6.255546813532651
1603.0,7.5612903225806445,5.8999999999999995
1604.0,9.629032258064516,5.604838709677419
1605.0,13.98225806451613,5.123387096774193
1606.0,12.08882769472856,5.21736821400472
1607.0,8.129897718332021,5.72118410700236
1608.0,9.933497246262785,5.7892210857592445
1609.0,13.245377655389456,5.712352478363493
1610.0,9.816640440597954,5.2061762391817465
1611.0,10.973387096774193,5.033064516129032
1612.0,8.43817859952793,4.518410700236034
1613.0,8.717073170731707,4.384205350118018
1614.0,7.100472069236821,4.398151062155783
1615.0,8.551042486231314,5.3619787568843424
1616.0,8.235601888276946,5.9055861526357205
1617.0,10.681451612903226,5.299999999999999
1618.0,8.691129032258065,5.135483870967741
1619.0,9.619354838709679,4.483064516129033
1620.0,7.620889063729347,4.6076711250983475
1621.0,9.1566089693155,4.856785995279307
1622.0,8.80139653815893,5.915538945712038
1623.0,7.7322842905848415,5.790373159491963
1624.0,6.924206661421453,4.794380128133079
1625.0,9.485392079727248,4.952343486568505
1626.0,8.587306582743246,4.784983702371585
1627.0,9.703566745344872,5.442452512082724
1628.0,11.028127458693941,5.0560188827694725
1629.0,10.461250983477576,4.946656176239182
1630.0,11.994335169158141,5.449134539732494
1631.0,9.58780487804878,5.7724036191974815
1632.0,12.517289535798582,6.4261211644374505
1633.0,10.57840283241542,6.737254130605821
1634.0,12.483143194335169,7.35721872541306
1635.0,11.487647521636507,6.7175845790715965
1636.0,11.544295830055074,7.012588512981903
1637.0,10.42230527143981,8.352458693941777
1638.0,9.979543666404407,7.890637293469709
1639.0,9.304484657749803,7.01573564122738
1640.0,9.668607395751376,8.2228166797797
1641.0,10.262313139260424,7.503855232100708
1642.0,8.061998426435878,8.332415420928402
1643.0,10.290479937057434,7.5950039339103075
1644.0,14.512903225806452,7.142741935483871
1645.0,13.339516129032258,7.408064516129032
1646.0,11.580114083398898,6.565243902439024
1647.0,10.23562155782848,6.476573564122738
1648.0,10.078697875688434,5.875786782061368
1649.0,9.426042486231314,5.927006294256491
1650.0,11.882140047206923,5.1551927616050355
1651.0,9.872462627852084,5.736369000786782
1652.0,10.2073564122738,6.011585365853659
1653.0,11.186290322580644,6.0922108575924465
1654.0,8.65684500393391,5.341148701809598
1655.0,10.201514555468133,5.4627065302911095
1656.0,10.018095987411487,5.99748229740362
1657.0,11.717309205350118,5.929504327301338
1658.0,9.418371361132966,5.6140047206923684
1659.0,10.544354838709678,5.22258064516129
1660.0,8.823387096774193,5.050806451612903
1661.0,8.925,5.220161290322581
1662.0,10.642545239968529,5.3855035405192755
1663.0,14.69567269866247,4.683969315499606
1664.0,30.62734067663257,4.718922108575924
1665.0,36.899331235247836,5.9436860739575135
1666.0,28.03641676969765,5.292945187516391
1667.0,20.26368438799595,4.53317597692106
1668.0,14.345209995878758,4.389082462253194
1669.0,12.682027649769584,4.157768536210708
1670.0,9.74268480011989,5.786220074182308
1671.0,11.41534599677794,4.781649245063879
1672.0,8.527499906335468,4.808999288149563
1673.0,8.063017496534412,4.564310067063804
1674.0,5.951294443820014,5.617305458768873
1675.0,7.996538158929976,5.502124311565696
1676.0,6.171361132966169,5.554209284028324
1677.0,6.997411112359972,5.956135026788056
1678.0,6.132458506612716,6.345101345022666
1679.0,7.593687947248136,6.950206061968453
1680.0,6.959324304072535,5.779017271739537
1681.0,7.068322655576786,5.2043984863811765
1682.0,7.424704956726987,4.489417781274586
1683.0,6.993327338803342,4.717958300550747
1684.0,7.8849799557903415,6.442171518489378
1685.0,9.629350717470308,6.8851298190401256
1686.0,9.874077404368514,5.444531864673485
1687.0,8.07197182570904,6.210070810385523
1688.0,8.072698662470495,5.824390243902439
1689.0,7.633516915814319,6.658064516129032
1690.0,7.0551534225019665,5.7670338316286385
1691.0,10.176278520849724,5.437018095987411
1692.0,7.747541306058222,4.9301534225019665
1693.0,8.144335169158143,5.229189614476789
1694.0,7.516620771046421,5.577301337529503
1695.0,8.606294256490951,5.276553894571203
1696.0,7.3032258064516125,4.788709677419355
1697.0,7.449193548387097,5.495967741935484
1698.0,6.432100708103855,6.158477576711251
1699.0,6.76927616050354,6.247383949645949
1700.0,5.520908733280882,4.7806648308418564
1701.0,8.448069574013712,4.999529804053801
1702.0,7.99251433067326,5.937943501554831
1703.0,6.6894121614027195,6.35921565321644
1704.0,6.855996403282005,7.000172342737252
1705.0,11.387872316511183,6.819519688284441
1706.0,9.538867033831629,6.448623131392605
1707.0,9.202714398111723,6.33957513768686
1708.0,11.133772619984263,5.937844217151849
1709.0,10.847128245476002,5.45279307631786
1710.0,8.049999999999999,5.214516129032258
1711.0,9.834677419354838,5.425806451612903
1712.0,10.05241935483871,6.495967741935484
1713.0,8.36774193548387,6.17741935483871
1714.0,7.200216365066877,6.318036978756885
1715.0,10.647875688434304,6.75381589299764
1716.0,8.075473942527443,6.861815780600202
1717.0,8.960375220111647,5.324897905661084
1718.0,11.03096592963572,4.524583236401435
1719.0,10.287709558051535,4.966068172095289
1720.0,9.07501134865598,4.873277988486668
1721.0,8.474047954497335,4.830001925568499
1722.0,8.684489415036687,5.732666093352606
1723.0,9.734067663257278,5.398741148701809
1724.0,8.263178599527931,4.972934697088906
1725.0,8.517899291896144,4.769472856018883
1726.0,8.413158929976397,5.629819040125886
1727.0,8.888434303697874,5.341522423288749
1728.0,7.456313926042487,5.002616050354051
1729.0,9.514044059795438,6.633969315499606
1730.0,8.89976396538159,5.939968528717545
1731.0,11.206451612903226,6.104838709677419
1732.0,22.018902439024387,5.601160503540519
1733.0,35.407100708103854,5.607946498819826
1734.0,27.399460492300772,5.302321943726349
1735.0,18.50595144430707,5.122954366640441
1736.0,15.857929639204226,5.004046307744183
1737.0,10.102506462852645,5.737776778689446
1738.0,8.100033719231202,4.994380128133079
1739.0,8.08429807800382,4.617998576299128
1740.0,8.180454085646847,4.218107227155221
1741.0,6.986456108800719,4.585028661346521
1742.0,8.293469708890637,4.492525570416994
1743.0,9.901577310703981,4.905136562886366
1744.0,10.316248922857891,4.888838934472293
1745.0,8.687235397699599,5.327975722153534
1746.0,17.788692817803753,4.550335319021393
1747.0,26.978269828781237,4.7715334757034205
1748.0,23.08684575325016,6.127421228129332
1749.0,18.069185414820602,6.622335026265278
1750.0,12.213510694746859,5.615427376007766
1751.0,10.14438975597558,5.40064763577654
1752.0,7.5744990254532265,5.876591098994261
1753.0,9.711999428428534,5.755724645447076
1754.0,7.768049155145929,4.890168970814132
1755.0,8.364823348694316,5.479262672811059
1756.0,9.376344086021506,6.146697388632872
1757.0,9.111442059121051,5.489284777640403
1758.0,6.8031920872204115,5.321625266943913
1759.0,14.70804765651343,6.477632909969653
1760.0,82.20924656251171,5.845191262972538
1761.0,51.93642051627889,5.259001161440185
1762.0,34.18335768611142,4.947135738638493
1763.0,21.43932411674347,4.970814132104454
1764.0,15.356835637480799,5.486635944700462
1765.0,10.20647034580945,6.2213817391630135
1766.0,9.183496309617475,5.479738488629126
1767.0,7.6362950058072006,5.98295680191825
1768.0,8.693723539769959,5.897008354876176
1769.0,10.694039189239817,5.805762241954216
1770.0,8.65284178187404,6.430261136712749
1771.0,7.4268817204301065,6.287096774193548
1772.0,7.915409688659099,5.154731932111947
1773.0,8.549409913453973,4.767918961447679
1774.0,8.45228166797797,6.735365853658536
1775.0,8.324527930763178,7.62816679779701
1776.0,8.486860739575135,6.412470495672698
1777.0,10.508890637293469,5.875629425649095
1778.0,8.267348544453185,4.956766325727774
1779.0,9.132258064516128,4.855645161290322
1780.0,7.6217741935483865,4.665322580645161
1781.0,7.866129032258065,4.390322580645162
1782.0,6.004032258064516,4.483870967741935
1783.0,6.890322580645162,4.873387096774193
1784.0,6.794354838709676,5.016129032258064
1785.0,10.484677419354838,5.259677419354839
1786.0,9.227734067663256,4.9673092053501176
1787.0,8.966862425536696,4.42482203739088
1788.0,7.317134989322242,4.847255629238321
1789.0,13.128748454535236,4.682026713124274
1790.0,9.256506635369643,4.61729805273618
1791.0,10.668585264783095,4.384048973915952
1792.0,9.816028048824052,4.344622741051117
1793.0,9.171192623939957,5.914246854396526
1794.0,6.98299993116746,5.619436566458688
1795.0,8.32938443670151,6.013244164699712
1796.0,8.694492525570418,5.532966168371361
1797.0,8.848033044846577,4.852084972462627
1798.0,7.8879032258064505,4.538709677419355
1799.0,6.737096774193548,4.364516129032258
1800.0,15.769354838709678,4.6217741935483865
1801.0,69.8532258064516,4.216935483870968
1802.0,65.23306451612903,3.979760031471282
1803.0,60.633064516129025,5.041473717732568
1804.0,36.2849846390169,5.807430407253381
1805.0,25.40606758832565,5.9333426997864445
1806.0,13.883256528417819,6.3085684313064325
1807.0,7.821044546850998,6.3379416282642085
1808.0,6.7451013450226665,5.4758345509722375
1809.0,6.632479112809561,5.792795324266606
1810.0,6.264089018770372,5.005691056910569
1811.0,5.628050653778427,4.473890075306283
1812.0,8.279386309992132,4.458143194335169
1813.0,9.455900865460269,4.11522423288749
1814.0,8.504032258064516,4.423387096774194
1815.0,8.616935483870968,5.9362903225806445
1816.0,9.327265745007681,6.086021505376344
1817.0,9.07327095275561,7.653356936795174
1818.0,10.145004870555617,10.651304746918436
1819.0,9.180871829455622,8.131405717282979
1820.0,6.283177850211682,7.7536060844479415
1821.0,7.388198269079465,6.0180959874114865
1822.0,6.712195121951219,4.7852871754524
1823.0,7.05279307631786,5.047639653815892
1824.0,7.744447566595481,4.645714847701472
1825.0,6.963352815555805,4.694228391592671
1826.0,8.143989547038327,4.548058334269978
1827.0,8.165179273912553,3.925986287512645
1828.0,7.649859503203327,4.340648533213443
1829.0,7.3018882769472855,4.694748229740362
1830.0,7.964231388857668,5.0099509197856955
1831.0,8.575587276610094,4.756588363118654
1832.0,6.311633134764527,4.582857517515267
1833.0,6.150230414746543,5.491743471582181
1834.0,5.06449364954479,5.320999587876063
1835.0,5.945841294818478,6.777627290097785
1836.0,6.173231613652542,5.594753849612228
1837.0,6.5418577423101425,4.688102731257727
1838.0,7.147945000187329,3.841632010790154
1839.0,7.977198306545278,3.587613802405305
1840.0,8.409480723839497,3.5255704169944924
1841.0,7.106549960660896,3.7948072383949643
1842.0,6.591581431943352,3.629661683713611
1843.0,7.074036191974822,3.6656963021243114
1844.0,6.158654602675059,3.8168764752163646
1845.0,7.815125885129818,4.108280881195908
1846.0,7.46522423288749,3.885188827694728
1847.0,9.272934697088907,3.7317073170731705
1848.0,8.256451612903225,3.5999999999999996
1849.0,9.522734254992319,5.238594470046083
1850.0,10.7269650818628,5.4315021917500275
1851.0,10.333240605447529,6.269380128133077
1852.0,9.55815256078828,7.141544902776216
1853.0,8.840328200517028,5.72670563111161
1854.0,10.417260499793937,5.938799595369225
1855.0,9.109608107601813,4.91925180772545
1856.0,9.704688846427635,5.345186579745982
1857.0,7.728957326439623,5.681061031808474
1858.0,8.24059795436664,6.333955265819939
1859.0,8.383870967741935,5.220085422052377
1860.0,8.6963133640553,5.139843018245851
1861.0,7.31774193548387,5.005251770259639
1862.0,7.796774193548386,5.6562549173878836
1863.0,7.138198269079464,5.078088119590873
1864.0,6.758870967741935,5.555645161290322
1865.0,5.776612903225806,5.5612903225806445
1866.0,7.074193548387097,7.6177419354838705
1867.0,6.20483870967742,6.455645161290322
1868.0,7.97741935483871,5.825
1869.0,8.594354838709677,5.3838709677419345
1870.0,6.52741935483871,4.460483870967742
1871.0,7.078225806451613,4.528225806451613
1872.0,6.251612903225807,5.675000000000001
1873.0,4.957258064516129,4.508870967741935
1874.0,5.531451612903226,6.27741935483871
1875.0,6.951612903225806,7.532258064516129
1876.0,7.355566483084186,7.9696105428796225
1877.0,7.215774980330448,6.519118804091267
1878.0,8.126435877261997,6.314398111723053
1879.0,7.821282454760031,5.622521636506688
1880.0,9.177080433335352,8.495142125118521
1881.0,7.686101192277432,7.185415279711109
1882.0,7.8458830115596445,8.064934233089229
1883.0,8.050764086424984,7.32883808428655
1884.0,8.356430430309267,7.467241622788436
1885.0,10.422383949645948,6.816168371361133
1886.0,10.529838709677419,6.383064516129032
1887.0,12.762096774193548,5.939516129032258
1888.0,10.028225806451614,5.599193548387096
1889.0,8.707258064516129,5.968548387096774
1890.0,8.206726986624705,6.079740361919748
1891.0,8.59175845790716,6.103619197482297
1892.0,9.501505189015024,5.984528492750365
1893.0,9.000821437937882,5.827315387209172
1894.0,11.59387059308381,5.718781611779251
1895.0,11.038005320145368,6.062695290547376
1896.0,8.218451912629725,6.973519163763067
1897.0,10.87537372147915,8.1507474429583
1898.0,9.494728560188827,7.364752163650668
1899.0,9.309047993705743,7.191502753737214
1900.0,8.925491738788356,6.834461054287962
1901.0,10.180291109362706,6.632887490165224
1902.0,10.44758064516129,6.6258064516129025
1903.0,10.021774193548389,6.755645161290323
1904.0,9.119354838709677,7.162096774193548
1905.0,9.82741935483871,6.30241935483871
1906.0,8.022580645161291,6.491935483870968
1907.0,9.94032258064516,5.654032258064516
1908.0,10.609677419354838,6.329032258064515
1909.0,12.447934697088908,5.711506687647522
1910.0,9.616306058221873,5.8255114083398905
1911.0,8.034362706530292,6.985739575137687
1912.0,6.9484067663257285,7.367033831628639
1913.0,11.833861601288824,6.851719680791277
1914.0,12.49993630811884,6.451823648420816
1915.0,11.879039751227005,6.579599865123075
1916.0,11.87419729496834,6.423670900303473
1917.0,9.754565209246561,5.719309879734742
1918.0,10.907159716758457,6.886152635719905
1919.0,10.869019519688283,7.499518564310066
1920.0,11.964800869206847,6.549916638567307
1921.0,9.738391218013563,5.815031283953392
1922.0,10.751571690832115,5.733243415383463
1923.0,11.586564759656813,6.010602824922259
1924.0,12.636753962009665,5.391630137499531
1925.0,8.050327825858902,5.136431756022629
1926.0,10.447918774118616,4.952999138286314
1927.0,7.503660409875987,5.15509909707392
1928.0,6.506432879997002,5.081719493462216
1929.0,7.027717208047656,5.202630100033719
1930.0,7.355621745157543,6.021812596006145
1931.0,9.30172904724439,5.678097486043985
1932.0,8.287371211269715,5.937396500693118
1933.0,11.019088831441309,6.022730508411074
1934.0,9.320220298977183,5.764437450826121
1935.0,8.602675059008654,5.314791502753737
1936.0,6.880487804878049,5.281313926042486
1937.0,9.542918961447679,4.995889063729347
1938.0,7.738611329661683,6.340165224232887
1939.0,8.430192761605035,5.41685680566483
1940.0,7.623564122738001,6.487057435090479
1941.0,8.138394964594807,6.229819040125885
1942.0,9.515415308530965,5.360778914240755
1943.0,9.441814656625828,5.1504917387883555
1944.0,9.798769248061143,6.052222659323367
1945.0,9.705029785320894,5.782966168371361
1946.0,9.166224570079802,5.660031471282455
1947.0,9.152714398111723,5.27513768686074
1948.0,11.929622344610543,5.137175452399685
1949.0,12.246872541306058,5.655133752950432
1950.0,12.113001573564123,5.2175845790715965
1951.0,8.291581431943351,5.435405192761605
1952.0,11.61038552321007,4.806766325727773
1953.0,35.480409126671915,5.109834775767112
1954.0,30.300078678206138,4.35177025963808
1955.0,120.53225806451613,4.330645161290322
1956.0,213.40483870967742,4.17741935483871
1957.0,129.26451612903224,4.3822580645161295
1958.0,77.12983870967741,5.213709677419355
1959.0,42.56612903225806,4.857258064516129
1960.0,22.65483870967742,4.229838709677419
1961.0,10.449193548387097,4.668548387096774
1962.0,9.350806451612904,5.976612903225806
1963.0,8.334323367427222,5.987903225806452
1964.0,7.576394520769028,6.6537841191066995
1965.0,8.325156347717323,6.037897173636749
1966.0,9.046852367407048,5.337093748108697
1967.0,9.017377796606748,4.457179746558189
1968.0,10.419939881780952,5.18988019585974
1969.0,8.255923737031818,5.3590349678011835
1970.0,9.671628272921888,5.60162605982506
1971.0,11.672910910654494,6.7129098041060775
1972.0,9.119865593576094,6.147929556430919
1973.0,8.216384409691273,5.571948649183202
1974.0,8.564381252107452,5.586274399610355
1975.0,11.330184331797234,5.56363287250384
1976.0,9.704608294930875,5.212058371735791
1977.0,10.796774193548387,5.110483870967742
1978.0,9.420161290322579,5.764516129032257
1979.0,7.522580645161289,7.7467741935483865
1980.0,8.748387096774193,7.435483870967741
1981.0,9.943725413060582,7.238217938630999
1982.0,7.682903413135513,6.487369337979095
1983.0,10.0188612266307,5.960688996290884
1984.0,10.506391667603312,6.715356299876363
1985.0,10.553707242141545,6.378104979206474
1986.0,10.033344573077066,6.135551309430145
1987.0,9.999213217938632,6.399685287175452
1988.0,10.00251770259638,6.4278520849724625
1989.0,6.981431943351691,5.337529504327301
1990.0,7.323131392604248,6.183713611329662
1991.0,7.02993705743509,5.89948859166011
1992.0,7.253206136900078,5.681451612903226
1993.0,9.5544256490952,5.962903225806452
1994.0,7.380841856805665,6.188709677419355
1995.0,8.971774193548388,5.149193548387097
1996.0,9.39516129032258,5.129032258064516
1997.0,8.175806451612903,5.430645161290322
1998.0,7.665322580645161,5.595161290322581
1999.0,8.104819040125886,5.5779307631786
2000.0,8.9544256490952,6.076062155782847
2001.0,11.610680566483083,5.871498819826908
2002.0,9.654130605822186,7.191797797010228
2003.0,11.883516915814319,6.225334382376082
2004.0,10.257258064516128,6.287096774193548
2005.0,9.189516129032258,5.683870967741935
2006.0,12.12145948072384,5.394394177812746
2007.0,12.369669551534225,5.280428796223447
2008.0,10.46386703383163,4.968036978756884
2009.0,9.498800157356412,6.611742722265932
2010.0,9.652950432730133,6.420692368214004
2011.0,9.229307631785995,6.3535405192761605
2012.0,12.000727773406766,6.446636506687647
2013.0,12.50637293469709,7.314712824547599
2014.0,12.128402832415421,6.647757671125097
2015.0,10.753422501966956,6.836860739575137
2016.0,10.589460866958902,6.537285976546402
2017.0,9.973148252219849,5.7813157993331075
2018.0,10.846526919186243,7.141247986212581
2019.0,10.777602937319696,7.344011089880484
2020.0,8.510359297141358,6.895058259338354
2021.0,7.725825184519126,6.3681578060020225
2022.0,9.877674122363343,6.148701809598741
2023.0,7.956595856281142,5.284609044247125
2024.0,8.550972237832976,6.38601026563261
2025.0,8.069978644486905,6.662950058072009
2026.0,9.043879959536923,5.869319246187853
2027.0,9.23240418118467,5.729781574313439
2028.0,8.735326514555467,5.488316286388669
2029.0,8.537214791502754,5.241797797010228
2030.0,6.714244285743105,5.751554398918678
2031.0,6.293815691258649,5.2193255865561134
2032.0,7.406585264984164,5.151598277149024
2033.0,8.632020012507818,5.3239403659545275
2034.0,8.129463979503317,4.9027254937561775
2035.0,9.133202202989771,4.641148701809598
2036.0,11.155498325800963,4.825413060582219
2037.0,10.299011948108976,6.132179386309992
2038.0,7.332826194353466,5.2686860739575145
2039.0,7.736574387499314,5.426278520849724
2040.0,11.526745100909373,4.925413060582219
2041.0,9.386703383162864,5.2852871754524
2042.0,8.760857592446893,7.16900078678206
2043.0,9.378225806451612,6.351612903225806
2044.0,10.338709677419354,5.744354838709677
2045.0,7.712096774193548,5.09758064516129
2046.0,9.684677419354838,6.470967741935484
2047.0,11.265322580645162,5.529032258064516
2048.0,8.7,5.075806451612904
2049.0,8.091935483870968,5.990322580645161
2050.0,8.397580645161291,5.245967741935484
2051.0,7.2229740361919745,4.411034618410699
2052.0,7.6905192761605035,4.09059795436664
2053.0,5.4313139260424865,4.5383556254917385
2054.0,5.7024390243902445,5.6205350118017305
2055.0,6.699606608969315,5.744138473642801
2056.0,8.126907946498818,6.9671125098347755
2057.0,7.3360346184107,5.5254917387883555
2058.0,6.505625491738789,5.082494099134539
2059.0,7.800806451612902,4.445967741935483
2060.0,7.853225806451612,5.92258064516129
2061.0,7.980645161290322,5.954032258064515
2062.0,9.535483870967742,5.375806451612903
2063.0,9.761290322580646,5.7612903225806456
2064.0,11.080094413847364,5.574626278520849
2065.0,7.87714398111723,5.804248623131393
2066.0,8.181928365366604,6.786110486680904
2067.0,7.313249784571578,9.459233449477352
2068.0,9.833237795511597,7.444132853770933
2069.0,11.365084672736128,6.808219062605373
2070.0,14.289397175077742,7.022254692593009
2071.0,11.511211644374509,6.496380802517702
2072.0,9.765519276160504,6.591699449252557
2073.0,7.871872541306059,6.11117230527144
2074.0,8.683064516129033,5.975806451612903
2075.0,6.921774193548387,6.407258064516128
2076.0,12.42983870967742,6.112903225806452
2077.0,9.944354838709677,6.107258064516129
2078.0,11.821439811172304,6.512863886703383
2079.0,11.937140796523172,5.9762092090967
2080.0,15.698497620920909,6.301696264658499
2081.0,73.32696320857218,6.141082199992507
2082.0,62.95151923869469,7.01476153010378
2083.0,43.35616874601926,6.1029747855082235
2084.0,64.55022292158405,5.040650406504065
2085.0,80.58270578097486,6.124536360570978
2086.0,54.93673897568469,5.7431531227754675
2087.0,33.36506687647521,6.050916039114309
2088.0,23.25334382376082,5.999887602562662
2089.0,15.970889063729345,6.3842868382600875
2090.0,11.55011427072796,5.192297028961073
2091.0,9.71768386347458,4.651294443820014
2092.0,11.773878835562549,4.0350904799370575
2093.0,10.06978756884343,4.038080251770259
2094.0,8.186113296616838,3.795121951219512
2095.0,7.959992132179385,3.8443351691581427
2096.0,8.537254130605822,3.945554681353265
2097.0,7.904032258064516,4.032258064516128
2098.0,7.479032258064516,4.02741935483871
2099.0,9.570967741935483,4.215975422427036
2100.0,8.813287250384025,4.883794162826421
2101.0,10.146198156682027,6.49331797235023
2102.0,9.081566820276498,6.068394777265745
2103.0,9.612135176651305,5.99231950844854
2104.0,8.57337679367577,5.594263984114495
2105.0,9.047210670263384,4.669712637218538
2106.0,9.44933498182908,4.773950020606197
2107.0,6.918215878011314,4.877374395863773
2108.0,8.858339889850512,5.028088119590873
2109.0,8.563709677419354,5.308064516129033
2110.0,9.419354838709676,5.160483870967742
2111.0,9.44032258064516,4.951612903225806
2112.0,9.431215578284814,4.711447678992919
2113.0,8.265319770709226,5.245739200479562
2114.0,7.587921022067363,6.121275898242853
2115.0,8.072383013000636,6.618476265407816
2116.0,6.413660035217863,6.4804615788093365
2117.0,8.747349293769435,5.093889325990034
2118.0,8.499644074781761,5.1101869544041065
2119.0,8.17639653815893,4.662313139260425
2120.0,156.3751376868607,5.391660110149489
2121.0,158.21172305271438,5.781431943351691
2122.0,95.43127458693941,5.462785208497246
2123.0,54.55710070810385,5.5311565696302125
2124.0,33.77389850511408,6.661605035405193
2125.0,19.91719118804091,5.192899291896144
2126.0,69.16426042486232,4.712431156569631
2127.0,165.83414634146342,3.977183320220299
2128.0,188.170102281668,5.1759244689221084
2129.0,130.5601551084635,5.9049042748491996
2130.0,97.14982578397212,5.257802255441909
2131.0,53.45689558278072,5.2536060844479415
2132.0,27.823609081712938,5.618738526094939
2133.0,15.506159379566146,4.9263047469184365
2134.0,10.464830841856806,5.981431943351692
2135.0,8.28048780487805,5.742564909520063
2136.0,10.851101494885915,5.556569630212431
2137.0,9.662647521636506,5.728284815106216
2138.0,6.807533438237608,5.917368214004721
2139.0,5.9154602675059005,7.374409913453974
2140.0,8.469826907946498,6.69567269866247
2141.0,9.115322580645161,7.054838709677419
2142.0,7.69758064516129,7.651612903225807
2143.0,8.362903225806452,6.941129032258065
2144.0,11.079838709677418,6.3096774193548395
2145.0,11.47983870967742,6.064516129032258
2146.0,10.858064516129032,6.978225806451613
2147.0,14.12598347757671,6.680625491738789
2148.0,11.023701809598741,6.110090479937057
2149.0,10.880802517702595,5.697383949645948
2150.0,11.3912077104642,8.070869394177812
2151.0,10.616443745082613,7.282140047206923
2152.0,11.079324491401596,6.855187141733168
2153.0,9.86775036529167,7.152219849387434
2154.0,12.705264905076444,7.379598296786741
2155.0,10.11768621597908,6.509845231342679
2156.0,9.999759521761973,6.455177383195974
2157.0,9.43092393307386,6.1073796323645375
2158.0,9.108066215160061,5.187836157645683
2159.0,9.25810198194148,5.3848300925405574
2160.0,7.551815218613015,5.8217563972874755
2161.0,9.113311603162114,7.117253006631449
2162.0,7.147765164287588,6.742812183882208
2163.0,7.496777940129632,6.023569742609869
2164.0,10.42918961447679,5.098583792289536
2165.0,8.55605822187254,5.860070810385523
2166.0,7.9643194335169145,5.608261211644374
2167.0,8.425708103855232,5.192033831628638
2168.0,8.524547600314712,4.291581431943351
2169.0,7.726081825334383,4.645476003147128
2170.0,7.872388632872504,4.895084485407066
2171.0,8.227304147465437,4.534754224270353
2172.0,7.63663594470046,5.041167434715822
2173.0,6.815092165898617,5.884293394777266
2174.0,8.227323817016972,5.291487767412236
2175.0,40.268884642763474,5.194284590311341
2176.0,249.6610936270653,4.8388473642800935
2177.0,187.29667584579073,4.704504327301337
2178.0,115.847128245476,4.309913453973249
2179.0,102.96935483870968,3.846774193548387
2180.0,73.20241935483871,3.6217741935483874
2181.0,96.52096774193548,4.345161290322581
2182.0,74.40239968528718,4.288788355625492
2183.0,54.126545464763396,4.25499325615376
2184.0,30.308522535686187,4.375952568281443
2185.0,17.58727661009329,4.8766269529054735
2186.0,10.027125248211007,5.404480911168559
2187.0,9.874377130868083,5.361901015323517
2188.0,7.407740436851373,5.420216552395939
2189.0,19.506702633846615,5.2832790079052865
2190.0,22.222745494736053,5.201041549586003
2191.0,109.3685924094264,5.137540744071035
2192.0,85.21463414634145,5.348033044846577
2193.0,50.47419354838709,8.792741935483871
2194.0,30.164358772619984,7.43566089693155
2195.0,20.83137293469709,6.151298190401259
2196.0,10.967702596380803,6.11597167584579
2197.0,8.175786782061369,5.639437450826121
2198.0,9.955232100708104,5.296734854445319
2199.0,11.404445318646736,5.282513768686075
2200.0,12.736093627065301,5.646498819826908
2201.0,11.050963808025177,5.759500393391031
2202.0,9.9662077104642,7.5188630999213215
2203.0,9.902911093627065,6.9489771833202205
2204.0,8.667899291896143,5.7246066089693155
2205.0,8.546852871754524,5.501416207710464
2206.0,9.684834775767111,5.7139653815893
2207.0,9.242014162077105,5.870692368214004
2208.0,6.513217938630999,5.161939417781275
2209.0,6.57918961447679,5.037018095987412
2210.0,6.8541109362706525,5.297541306058221
2211.0,5.743587726199842,5.52094807238395
2212.0,7.039535798583792,4.622974036191975
2213.0,6.766424075531078,4.240283241542093
2214.0,7.662647521636506,4.621754523996852
2215.0,8.283339889850511,4.389103068450039
2216.0,9.741266719118805,4.2308418568056645
2217.0,7.694256490952006,4.559244689221085
2218.0,7.180330448465774,4.797718332022029
2219.0,8.324822974036191,4.999567269866247
2220.0,7.368214004720692,4.572088906372935
2221.0,6.990558615263572,5.303383162863886
2222.0,7.5834775767112514,5.476632572777341
2223.0,8.673590348806712,5.5086695890000374
2224.0,8.31358510359297,6.231832827544865
2225.0,8.621780750065565,6.233933722977783
2226.0,9.711696826645685,6.3367249260050205
2227.0,8.559304634520998,5.4247948746768575
2228.0,8.957727323817018,5.971848188527968
2229.0,10.002073732718895,6.29870930276123
2230.0,7.8039479599865125,5.995538758382975
2231.0,7.833651792739126,5.940560488554194
2232.0,11.74036191974823,5.8929976396538155
2233.0,10.634633397025214,4.894084148214754
2234.0,10.585845416057847,5.462620358922484
2235.0,10.374448315911732,7.653081563073695
2236.0,11.013345322393317,7.59601363755573
2237.0,12.660488554194298,7.493522161028062
2238.0,9.02163837997827,6.149977520512532
2239.0,7.412255067251134,6.615488366865236
2240.0,8.27993705743509,6.363965381589299
2241.0,6.44642014162077,6.107631785995279
2242.0,7.712588512981904,6.296538158929977
2243.0,7.757946498819827,5.588867033831629
2244.0,9.473308418568056,6.409775767112509
2245.0,8.808025177025964,6.717387883556254
2246.0,9.83579858379229,6.269944925255704
2247.0,6.8736034618410695,5.778324154209284
2248.0,9.428225806451614,5.945967741935483
2249.0,8.781451612903226,5.77258064516129
2250.0,7.65241935483871,8.928225806451614
2251.0,8.105645161290322,7.505645161290323
2252.0,10.451612903225806,6.737903225806452
2253.0,9.370161290322581,6.006451612903225
2254.0,9.636290322580646,6.086290322580645
2255.0,10.299193548387098,6.59274193548387
2256.0,10.933064516129031,6.888709677419355
2257.0,8.799999999999999,6.174193548387096
2258.0,9.01290322580645,6.162903225806452
2259.0,8.128225806451614,5.640322580645162
2260.0,10.934677419354838,5.490322580645161
2261.0,12.28147128245476,6.356038552321007
2262.0,10.456058221872539,6.354228953579859
2263.0,10.563512981904012,5.749291896144768
2264.0,8.88981117230527,5.749881982690795
2265.0,11.211369000786782,6.098623131392604
2266.0,9.825668764752162,5.384480723839497
2267.0,8.697108575924469,5.674095200629425
2268.0,10.28040912667191,6.405192761605035
2269.0,9.217309205350118,6.155310778914241
2270.0,7.8741935483870975,7.6322580645161295
2271.0,8.09516129032258,6.578225806451613
2272.0,6.131451612903225,6.070161290322581
2273.0,8.629838709677419,7.514516129032258
2274.0,8.45483870967742,6.320161290322581
2275.0,8.738532651455547,6.577065302911094
2276.0,7.512411487018096,7.303048780487805
2277.0,6.532258064516129,6.922738001573563
2278.0,7.670007680491551,6.30399572889738
2279.0,9.454486531040425,7.12243452849275
2280.0,8.195771983065454,6.688597279982016
2281.0,8.076486891757781,5.54465497907578
2282.0,7.9063263202560226,6.439949534421933
2283.0,7.619445802217105,7.526042355536619
2284.0,10.081556103311542,6.266149573107562
2285.0,8.22606522710817,5.6880413483161725
2286.0,9.624210408002698,5.351897643400397
2287.0,7.501352515829305,6.0290210183207815
2288.0,5.205822187254131,5.831868420066689
2289.0,4.465814319433517,5.672462627852084
2290.0,4.955645161290322,6.791935483870968
2291.0,5.045908733280881,6.00926435877262
2292.0,5.260857592446892,5.2187450826121164
2293.0,8.568332022029896,5.200904799370575
2294.0,6.19604642014162,6.23794256490952
2295.0,6.571007081038553,6.463729346970888
2296.0,8.115873328088119,5.676711250983478
2297.0,6.911565696302125,5.1270653029110935
2298.0,5.565460267505901,4.5828874901652235
2299.0,5.804838709677419,4.213709677419354
2300.0,7.036290322580645,4.346774193548387
2301.0,7.272350230414746,5.879301075268817
2302.0,6.8570678383881685,6.742829457364341
2303.0,7.240016254063516,5.996933161861894
2304.0,9.115035008752187,8.771930482620654
2305.0,9.795055906833852,8.417032829635982
2306.0,11.100989533097561,10.559854249276604
2307.0,10.6942807130354,8.697942342728538
2308.0,8.658646804558282,9.150091094202121
2309.0,9.672257350051797,6.211374272139464
2310.0,8.563855249526668,4.980495123780946
2311.0,9.78625013396206,6.539992140892366
2312.0,9.500192992498995,5.714865127431683
2313.0,9.636368064141472,10.988640365666328
