time,emg_right_hand,emg_left_hand
0.0,40.926829268292686,6.634146341463414
1.0,41.30894308943089,7.644715447154471
2.0,30.737846358055414,8.718483490957357
3.0,19.730994967092528,11.3352922957801
4.0,14.622524446442622,12.636892585515717
5.0,14.857603686635946,14.882411674347159
6.0,11.29131167809374,26.545002060619684
7.0,11.639050616312613,18.82211700573227
8.0,34.77920272751115,25.64291334157581
9.0,24.882612116443745,24.456018882769474
10.0,20.745043273013376,19.308733280881196
11.0,18.71555861526357,12.338867033831628
12.0,17.36544059795437,9.733143194335169
13.0,12.870987411487018,10.65930369787569
14.0,9.465198006818778,10.080675422138837
15.0,14.426383425124573,11.45575863947225
16.0,13.940365666329473,11.536110558730542
17.0,12.575482372335244,9.841595985970493
18.0,9.80426360945637,8.311435286454955
19.0,8.179397549735866,7.399661871042673
20.0,8.190082799445506,8.714903900191075
21.0,7.9300325952568285,8.817897418605522
22.0,7.646510059570642,7.437713086808287
23.0,7.076126784309318,6.342223970626803
24.0,36.12923082687048,7.929253306357949
25.0,34.24933123524784,8.278835562549174
26.0,55.2947678992919,8.7426435877262
27.0,41.87751770259638,8.086900078678205
28.0,24.056176239181745,7.02956333595594
29.0,13.586959087332808,5.480217978978796
30.0,9.586624704956726,7.167931570134559
31.0,7.002989771833202,6.803320623776957
32.0,6.988512981904012,8.76633379733301
33.0,7.8193548387096765,7.151695616211745
34.0,8.744546850998463,6.925960061443932
35.0,8.473610955003558,8.531882469746357
36.0,7.841567382263685,8.572373646547526
37.0,6.210402970951797,7.463653064834152
38.0,30.272578597611073,14.825106102309551
39.0,35.99290763457415,50.59769036335739
40.0,96.65656396677565,183.09664219190688
41.0,105.61875817386402,127.37174659518539
42.0,71.77782312101745,75.41248764348686
43.0,45.149280224103194,46.54879374493852
44.0,27.995489836677876,26.760234795364614
45.0,18.270364902603298,14.045735021600482
46.0,14.928327612591971,13.641012672090564
47.0,13.230334195047018,15.663682514705332
48.0,9.537824547600314,11.944590873328089
49.0,7.622830801509007,9.883947628558172
50.0,5.678370554177006,10.470140612076095
51.0,7.027894954507857,12.51571546732837
52.0,10.05001159999193,10.023455688030825
53.0,18.730247735479836,8.009711714983155
54.0,14.996578434678355,6.556846877224533
55.0,11.136595668952081,6.377616986999363
56.0,9.73526282267431,4.741296691768762
57.0,7.934586564759657,4.282686111423326
58.0,9.540562361844817,4.296703008504739
59.0,8.05676351579184,6.488597279982016
60.0,6.556243677644149,6.037237270990222
61.0,5.871692705406316,8.369823161365254
62.0,7.183657412610993,9.270203439361582
63.0,8.848113596343337,8.521673972500093
64.0,13.64295080738826,9.996628076879848
65.0,11.321082012663446,9.829942677306956
66.0,9.630587089281033,10.607751676595107
67.0,11.300906672661196,11.638642238956953
68.0,13.498334949591056,14.10976873138145
69.0,12.933883296608125,14.146282215153091
70.0,9.35757894177377,12.735218212218559
71.0,6.567422343390725,11.530051502422644
72.0,4.870950315976206,10.797059020852775
73.0,7.421733917800007,8.723314975085234
74.0,9.274024952231088,8.666179611104866
75.0,11.390356299876363,9.564403731594918
76.0,8.483196583117904,10.69810048330898
77.0,7.733917800007493,11.017713836124535
78.0,6.980727586077704,10.88061144205912
79.0,6.099745232475366,11.86089693154996
80.0,6.159235322767975,10.0162077104642
81.0,6.565661646247799,9.714943239294143
82.0,6.2687179198980925,10.012743059458245
83.0,7.2254879922071105,11.660807013600088
84.0,8.364280094413846,12.386624704956727
85.0,6.929897718332022,12.66679779701023
86.0,7.5209677419354835,12.373918174665617
87.0,6.442866004962779,12.332816377171214
88.0,7.156474308539611,10.157665072928644
89.0,17.966759970949585,11.854166918840404
90.0,22.669996728946373,13.622321554658296
91.0,23.75989521368549,12.355046748822021
92.0,20.2109177120064,14.287472565005363
93.0,24.782484819811224,12.63940898116515
94.0,16.027198350110176,11.236856339520418
95.0,10.047623752628052,10.132790688961439
96.0,9.440275748379603,12.364677232025777
97.0,10.398859166011015,11.801573564122737
98.0,7.652930763178599,10.976553894571204
99.0,7.852852084972462,12.452891424075531
100.0,8.042958300550747,12.038945712037766
101.0,6.9415098146018686,11.767601726885754
102.0,19.697977566624303,8.783958219855151
103.0,13.706246847828279,11.943995238959833
104.0,10.413626964433416,14.265467328370553
105.0,8.069313482216707,12.069023986765922
106.0,6.429032258064517,11.370161290322581
107.0,8.09516129032258,13.214516129032258
108.0,7.408064516129032,11.61774193548387
109.0,11.145368072787427,10.134966914805624
110.0,11.84892321814037,12.221328854727751
111.0,11.162768060683089,15.344535395105812
112.0,10.709302617131097,13.504621768213429
113.0,30.226425502113937,14.44626249700994
114.0,28.044651755273314,10.57923082687048
115.0,56.888572927203924,17.083085122325876
116.0,37.73213068075381,14.214546101682215
117.0,28.8720692368214,12.393568056648308
118.0,18.939567644524374,10.006519051365629
119.0,13.187329062230713,10.38698437675621
120.0,19.097336180735077,9.979094076655052
121.0,12.790603574238506,11.235809823536023
122.0,9.78066764077779,11.885489490839607
123.0,8.954943613952267,10.096111048668089
124.0,7.4326252294781,8.38859166011015
125.0,8.367387883556255,8.768489378442172
126.0,8.693135326514556,10.225708103855233
127.0,14.488906372934697,11.363257277734068
128.0,9.705822187254132,10.141424075531077
129.0,8.343627065302911,9.915794649881981
130.0,6.361329661683714,9.661526357199055
131.0,7.771774193548387,11.583870967741934
132.0,9.532277734067662,12.350354051927615
133.0,8.246380802517702,12.212273800157355
134.0,7.8175452399685295,10.20936270653029
135.0,9.319256490952005,9.856294256490951
136.0,7.986073957513769,9.029071597167583
137.0,9.139902963545765,9.575174216027873
138.0,7.8257886553519915,11.340985725525458
139.0,7.520142557416357,11.806507811621895
140.0,10.114045933086057,9.178599527930762
141.0,8.56135026788056,7.7273800157356405
142.0,9.023528530216177,6.946779813420254
143.0,8.22835412685924,8.042898355250834
144.0,7.804184931250234,9.077153347570341
145.0,12.837435839796186,10.763455846540031
146.0,9.773143064645819,10.824524832628686
147.0,8.191213546484985,10.162380433623548
148.0,6.905207387681816,8.996320785168148
149.0,6.520748855131231,8.824370070003429
150.0,10.019933829611249,9.104631927212573
151.0,9.624193548387098,8.546774193548387
152.0,9.336290322580645,8.818548387096772
153.0,8.834677419354838,8.553225806451612
154.0,6.2689614476789925,7.094590873328088
155.0,7.144059795436664,6.478658536585366
156.0,7.377242328874901,5.563847364280094
157.0,7.009300887939755,7.612108013937282
158.0,12.563598216627328,7.199467985463264
159.0,24.457382638342516,7.427409988385598
160.0,19.586384400978293,6.954158400227234
161.0,13.516057585825028,8.303593755581753
162.0,10.665469503264317,7.307045838114581
163.0,8.805853031202052,8.004137358381406
164.0,13.538777551530739,8.537314642249411
165.0,12.470814132104454,19.205855906485333
166.0,9.005529953917051,16.352927953242666
167.0,6.847319321119478,18.32185006181859
168.0,5.74831965831179,12.244183432617735
169.0,7.581083511295942,9.400612566033494
170.0,6.49538046532539,7.107679554906149
171.0,29.53030234910644,10.29956164999438
172.0,20.475980667640776,9.966217076917314
173.0,13.170327076542653,10.622762354351654
174.0,13.742519950545127,9.648123899441758
175.0,11.708740774043685,11.615863024989697
176.0,9.172151661608781,10.854902401558578
177.0,7.602682552171144,10.16386047731445
178.0,8.906376681278331,9.900183582480986
179.0,10.922016784683976,11.31199280656401
180.0,21.017478738151436,12.01214641639504
181.0,14.680379154021953,9.761679967030085
182.0,11.344123487317821,7.6986999363081186
183.0,18.180558989921696,7.422205987036828
184.0,21.797115132441647,6.359566895208122
185.0,13.543089430894307,6.613143007006107
186.0,9.608025177025961,5.991306058221873
187.0,8.754445318646734,6.880782848151062
188.0,7.761900078678206,7.052891424075531
189.0,8.199901652242328,6.534107002360345
190.0,7.22462627852085,7.962155782848151
191.0,10.29209284028324,7.695082612116444
192.0,25.75186860739575,6.039516129032258
193.0,22.388001573564125,6.9693154996066085
194.0,13.727773406766326,8.385523210070811
195.0,10.582533438237608,7.797324940991346
196.0,33.70020606196845,8.056356075081489
197.0,51.48778989172379,8.70166348207261
198.0,31.94617661383987,8.417314825221986
199.0,19.716203963882958,11.051694391367878
200.0,20.552879247686484,10.274867933011127
201.0,13.806009516316362,8.40778726911693
202.0,9.327211419579633,7.336691206773818
203.0,8.147015848038665,9.067251133340825
204.0,7.793413510171968,10.445505975797085
205.0,14.569517814993818,8.437806751339402
206.0,9.333914053426248,8.868288936345584
207.0,10.057922146041737,8.586527293844366
208.0,10.137986587239144,9.873403019744483
209.0,8.18425686561013,8.748267206174365
210.0,6.535139185493238,7.843104417219287
211.0,7.289535798583792,7.618095987411487
212.0,6.4098759881608025,8.480997339927317
213.0,10.771327413734966,7.784221273088307
214.0,9.745391705069125,8.301574500768048
215.0,7.31589018770372,7.626819901839571
216.0,7.231145329886479,7.318740399385561
217.0,8.332602749990635,7.449421153197706
218.0,8.79110936270653,7.393297366153385
219.0,9.719568393840621,7.419617099396801
220.0,10.546251545464763,8.998164175190139
221.0,9.29878985425799,10.48102356599603
222.0,12.744595556554644,13.841219886853246
223.0,13.106140646659924,13.751189539545164
224.0,12.638829568019181,10.632085721778877
225.0,9.89961035555056,8.379228953579858
226.0,9.062717770034842,8.908658349256303
227.0,8.72530066314488,8.284934996815405
228.0,7.321658986175114,6.81563823011502
229.0,30.267157468809714,8.73058708928103
230.0,20.783809149151402,7.606230564609794
231.0,14.556105990783411,7.830337941628264
232.0,21.98079689783073,9.048941590798396
233.0,29.176919186242554,9.300507661758646
234.0,43.84242487015482,8.141046171821701
235.0,38.51516404798063,8.40233952216277
236.0,28.980113495272775,9.685001389720252
237.0,24.940489477770136,7.3720050221614635
238.0,28.289060069895523,9.0602859774177
239.0,19.446873477951367,8.630793151249485
240.0,13.883114158330523,7.776763703120902
241.0,16.85780225544191,7.682207485669327
242.0,12.569341725675322,7.810419242441272
243.0,8.96995803829006,8.239198606271778
244.0,8.960862275673449,8.52981435689933
245.0,7.946963395901241,8.397568468772246
246.0,10.595908733280881,7.365066876475216
247.0,8.26726986624705,8.38985051140834
248.0,12.149842643587725,7.2153815892997635
249.0,12.238630999213218,6.575432730133754
250.0,10.90963808025177,7.864732494099135
251.0,9.4830448465775,7.390833988985051
252.0,8.446085759244689,7.195023603461841
253.0,6.833929976396538,7.498721479150275
254.0,15.516561762391817,6.78766719118804
255.0,13.79860346184107,7.79110936270653
256.0,33.024704956726985,16.545554681353266
257.0,55.55483870967741,18.945790715971675
258.0,41.50725806451613,16.367250196695515
259.0,29.079032258064515,49.492092840283235
260.0,25.85564516129032,38.281451612903226
261.0,44.675,27.593548387096767
262.0,29.06964988198269,20.66030684500393
263.0,22.612804878048777,14.91961054287962
264.0,15.359877861451427,10.491506500318458
265.0,11.625532951182048,9.664911393353565
266.0,7.646637443332959,9.033262148289687
267.0,8.257622419542168,9.692083473830131
268.0,9.122479487467684,9.230328575175154
269.0,19.02514143344198,9.456946161627513
270.0,15.239782136300626,7.2805505601138965
271.0,27.72275298789854,8.737177325690308
272.0,17.6040072735954,7.632682125235141
273.0,11.115060472435182,7.029474703170566
274.0,8.39163161870607,5.862433204119845
275.0,8.915861892302344,4.627376356284193
276.0,7.87854463615904,5.259714928732183
277.0,7.390942928039703,5.0502894954507855
278.0,7.85031017369727,7.813854425144747
279.0,6.609429280397022,8.577088502894954
280.0,7.07910488410095,7.984275958764551
281.0,9.680220644815451,14.93029082116415
282.0,9.16715746880971,14.224864186429883
283.0,7.35454647634034,9.52452886740849
284.0,7.014251995054512,11.310966243302985
285.0,45.7334367966154,17.528327036194856
286.0,33.93758498254958,16.916555710222113
287.0,22.822214993241744,14.5136476426799
288.0,22.93328491597571,12.066501240694787
289.0,22.39976598277149,11.362912304061005
290.0,17.983477576711252,11.185601888276947
291.0,12.007395751376869,11.417584579071598
292.0,9.739024390243902,12.596754523996854
293.0,6.873249409913454,10.99213217938631
294.0,6.42188190775917,9.90669139410288
295.0,6.828564872054251,9.513103667903039
296.0,6.0155707916526175,8.68267299838897
297.0,9.914390618560564,7.9417781274586945
298.0,7.881701697201303,7.678112472368963
299.0,16.559360833239666,6.908718294556216
300.0,10.997422352103705,8.673867595818816
301.0,10.343164362519202,9.67926267281106
302.0,7.648694316436251,9.326651305683564
303.0,7.0209677419354835,8.92983870967742
304.0,5.925806451612903,9.022580645161291
305.0,5.416129032258064,9.930645161290322
306.0,5.637572373862696,9.863006617038875
307.0,6.140963606286187,9.458519437551695
308.0,9.27733664185277,8.798614557485525
309.0,8.060442514474772,8.98922663358147
310.0,7.550785773366418,11.842597187758477
311.0,6.337096774193548,9.724193548387095
312.0,6.378225806451613,11.141935483870967
313.0,19.97258064516129,8.858870967741936
314.0,38.21209677419355,12.281451612903226
315.0,32.24516129032258,13.273387096774194
316.0,23.12338709677419,11.635483870967743
317.0,16.63225806451613,9.616935483870968
318.0,12.39287962234461,8.956530291109363
319.0,8.747619984264357,7.95446498819827
320.0,7.262922895357986,7.5792486231313925
321.0,10.434480723839496,7.103973249409913
322.0,11.677104642014163,7.014712824547599
323.0,8.464044059795437,6.458575924468922
324.0,9.751691581431944,6.5369197482297405
325.0,8.10288112097711,7.38833314600427
326.0,7.354509010527893,6.850106777565472
327.0,6.529339477726575,7.215375969427896
328.0,6.38819452249822,6.582904349780824
329.0,7.069864373758945,9.184449814544228
330.0,11.68892604248623,8.576180173092052
331.0,49.05051140833989,11.192525570416993
332.0,35.655468135326515,14.609795436664044
333.0,23.822657450076804,11.534563148626878
334.0,15.12726574500768,9.082085721778878
335.0,15.760253456221196,9.254185867895545
336.0,14.10478251095875,7.605623618448165
337.0,10.855794087894797,6.928814956352328
338.0,8.076130530890563,9.058263084934996
339.0,6.980030721966205,8.510951256978007
340.0,7.166011014948859,7.175767112509834
341.0,7.3977970102281665,7.758929976396538
342.0,6.704563335955941,9.101888276947285
343.0,16.631313926042488,9.68804091266719
344.0,32.7302911093627,9.952989771833202
345.0,24.12588512981904,8.493410700236035
346.0,16.065361919748227,7.486959087332808
347.0,11.160503540519276,8.776947285601889
348.0,11.066522423288749,8.968214004720693
349.0,7.67527537372148,8.990794649881982
350.0,6.829976396538159,8.563139260424862
351.0,7.4149881982690795,8.254819040125884
352.0,8.755074744295829,8.0294256490952
353.0,6.9285208497246265,6.911565696302125
354.0,7.760483870967741,6.793705743509047
355.0,6.507142857142856,10.123350567607059
356.0,23.88299707766663,10.863406204338542
357.0,15.0862950058072,16.389172380203064
358.0,9.866265782473493,14.034908770746693
359.0,7.4872803566745345,10.054512757109137
360.0,7.836574126109925,8.9174253493687
361.0,8.56605222734255,7.984639016897082
362.0,9.819377318197144,8.731688584166948
363.0,8.847323067700724,8.786812034018958
364.0,11.854902401558576,8.864725937581955
365.0,12.758330523397401,11.341077516765951
366.0,9.549606608969315,10.237490165224234
367.0,26.701789929189616,9.46304091266719
368.0,35.90936270653029,10.523052714398112
369.0,38.339811172305275,10.69543666404406
370.0,22.35125885129819,11.686428009441384
371.0,13.299547600314712,10.241325727773408
372.0,8.668725413060582,8.42509834775767
373.0,5.874339665055636,9.827372522573151
374.0,7.2904349780825,9.132805065377841
375.0,22.635776104304824,9.52273612828294
376.0,16.875323142632347,11.152792139672549
377.0,16.648814207036082,12.128058146940916
378.0,13.648907871567195,11.449589749353715
379.0,9.588812708403582,11.441159941553332
380.0,7.369937432093215,10.821288074631898
381.0,8.758532838784609,9.486568506238058
382.0,7.616795923719606,9.619051365628863
383.0,19.992289535798584,10.09897718332022
384.0,14.150039339103067,11.69236821400472
385.0,11.797285601888277,15.840676632572777
386.0,13.161821400472068,11.71420141620771
387.0,23.5668371361133,10.3433910306845
388.0,41.1197678992919,9.797187254130606
389.0,29.553894571203777,9.569630212431157
390.0,28.844404480911166,10.23078940466824
391.0,36.45918099733993,10.456071334906898
392.0,32.88430557116631,11.694241504627026
393.0,21.96103555505601,11.141171181297068
394.0,15.831422576898579,10.629594245251209
395.0,10.580757558727662,8.546176613839872
396.0,9.151511745532202,8.092915214866434
397.0,8.32844404480911,10.783016747218163
398.0,7.776928552695665,9.828781237121127
399.0,15.058221872541306,10.981941478400959
400.0,15.554831216514929,10.742272676182981
401.0,17.6872353976996,10.247967479674797
402.0,17.006444119740735,10.04372260312465
403.0,13.13978494623656,9.35099846390169
404.0,9.480337941628264,8.493701996927804
405.0,13.764362519201228,9.412749615975423
406.0,17.419347345547187,10.202319133790416
407.0,12.296847251882657,10.888409950919787
408.0,12.533244352028774,8.866969203102169
409.0,31.857761043048217,8.764414971338653
410.0,18.572065490240156,9.213180472818554
411.0,15.785639354089394,8.829957663631937
412.0,39.51455546813533,10.17688359372073
413.0,33.69000786782061,9.24461803604211
414.0,38.26081825334382,10.387061181671724
415.0,28.710023978119963,31.42137892922708
416.0,25.131074144842827,78.1506874976584
417.0,33.502791203027236,67.10033344573077
418.0,25.443901044947648,37.72588443278067
419.0,20.49968459013708,21.510857243927706
420.0,18.746386073870383,16.357963184175834
421.0,12.63037710647174,11.728811122641286
422.0,9.318335681481347,9.137025545585002
423.0,6.502753737214791,8.79514443070698
424.0,6.61243115656963,9.276801168933346
425.0,11.75629238320033,9.35307032332996
426.0,11.369313626315986,9.702648832939943
427.0,10.497196620583717,10.632411674347157
428.0,8.242831243525167,8.228677705140571
429.0,11.34721223859972,7.760827837621426
430.0,8.893821887527631,6.703548273828038
431.0,7.270259638080251,7.94509210926425
432.0,7.548724289086209,8.998275701329513
433.0,8.520495106354986,8.557473863239327
434.0,7.361161719001179,7.293573393348336
435.0,6.201228878648233,5.9992319508448535
436.0,5.2099022142295155,5.607882806938668
437.0,6.041587051815219,5.172604997939381
438.0,6.520156607096025,5.1252669439136795
439.0,6.510846352703158,7.5768423813270385
440.0,5.967891798733655,7.841032557791015
441.0,5.369862500468322,7.963395901240118
442.0,6.060582218725413,9.202352853021617
443.0,6.946929676670038,8.880296729234573
444.0,6.5157543741336035,6.949158892510584
445.0,6.899576636319358,6.313289123674647
446.0,11.19243190588588,5.879225206998614
447.0,9.984942489977893,6.866160878198643
448.0,7.743930538383724,7.825783972125436
449.0,6.1865207373271875,9.042396313364055
450.0,6.58963133640553,9.17432561537597
451.0,6.340783410138249,9.091598291558952
452.0,8.65810291858679,7.662158592784085
453.0,8.196121351766513,7.462204488404331
454.0,12.474270353302611,6.34239256678281
455.0,14.508181596792925,6.736499194485033
456.0,12.954572702409052,6.170413247911281
457.0,11.785274062418043,5.848340264508636
458.0,8.530271439811173,5.877242328874901
459.0,7.294417593945525,6.157611179798433
460.0,6.961247236896332,6.9811884155707915
461.0,9.203282941815594,6.419783822262185
462.0,10.427198306545277,6.401481772882244
463.0,10.72919710763928,8.203120902176764
464.0,9.661065527705968,7.562005919598366
465.0,8.533101045296167,8.03622944063542
466.0,7.392829043497809,8.959106065715035
467.0,6.433741710688997,6.9576636319358585
468.0,7.330598329024765,8.235023041474655
469.0,7.619984264358773,8.774193548387096
470.0,9.306770072309018,8.66187104267356
471.0,7.29421902513956,9.108276197969353
472.0,7.438968191525233,8.405904612041512
473.0,29.077198306545277,7.4104754411599405
474.0,17.532670188453036,7.848919111310928
475.0,13.802480236783936,7.261024315312277
476.0,11.120752313513918,8.04593308605897
477.0,39.41542092840283,9.325727773406765
478.0,27.66011014948859,7.918961447678992
479.0,16.669514068412575,7.0695740137124865
480.0,13.962609119178751,11.029672923457344
481.0,10.333782923082687,9.840957626166123
482.0,7.3277883930913035,7.898055524334044
483.0,9.961691206773818,8.187029335731145
484.0,11.762391817466561,7.1266719118804085
485.0,12.837922895357986,6.460267505900864
486.0,10.967741935483872,9.158143194335167
487.0,10.418568056648308,7.804091266719119
488.0,10.077104642014163,9.053501180173093
489.0,9.859166011014949,7.903225806451612
490.0,8.659323367427222,7.013375295043273
491.0,11.737214791502753,5.8977183320220306
492.0,19.53343823760818,7.288749016522423
493.0,15.436664044059796,7.431943351691581
494.0,11.468809711138586,6.556704507137237
495.0,11.497208796972762,7.886216327601064
496.0,9.3394777265745,8.532801318796597
497.0,7.9735866022254696,7.666704132479112
498.0,5.8820726087445205,6.716278895507848
499.0,9.639192986399909,7.345850661271589
500.0,11.811101120227793,11.758731407590574
501.0,13.073210070810383,11.988409950919785
502.0,12.85259169757596,9.546863174852945
503.0,22.877505526207337,10.356899329361957
504.0,17.354651380615188,9.683211569442882
505.0,11.537278483383911,7.718867783147877
506.0,8.046026750590087,7.075452399685287
507.0,8.59618410700236,7.603894571203776
508.0,7.923898505114083,7.701947285601888
509.0,11.487175452399686,9.635405192761606
510.0,14.849409913453972,9.604091266719118
511.0,48.71416207710464,11.18575924468922
512.0,65.92401652242329,9.681589299763964
513.0,48.14870180959875,9.513375295043272
514.0,43.274062418043535,9.314872054250497
515.0,26.963939155520585,8.04217245513469
516.0,15.7406869356712,7.603209883481323
517.0,10.695746693642052,7.153621070772919
518.0,8.091903637930388,7.807613053089057
519.0,6.912854520250271,8.375557303960136
520.0,6.932587763665655,11.083687385260948
521.0,6.929504327301338,10.868725413060583
522.0,12.522816679779702,9.76420141620771
523.0,10.212313139260425,11.029071597167585
524.0,12.99758064516129,9.370161290322581
525.0,13.371302124311566,8.179740361919748
526.0,26.651376868607393,6.7713217938631
527.0,19.70955940204563,7.337273800157356
528.0,12.441152736589398,8.276236155661804
529.0,10.796382819907603,8.838924529443805
530.0,11.058694950473077,7.815607032621195
531.0,10.35814931855451,8.021455590043317
532.0,8.337734413501526,7.409786934806604
533.0,7.865031632472578,6.951618610227469
534.0,8.011449726543134,8.863948565538596
535.0,8.958124548558743,8.602312599055686
536.0,6.87596644537709,9.119364972575227
537.0,30.494050811014198,8.217209368008042
538.0,25.464354737840182,8.415356371926002
539.0,18.390713954285943,7.521604228449233
540.0,12.8075108867005,5.912763449506172
541.0,10.87836255666704,6.0791277958862535
542.0,9.416197407365779,5.59278970439474
543.0,10.65608257465063,5.923007755423177
544.0,7.820365118752216,5.909606522509748
545.0,9.683711089592284,6.23191914301277
546.0,11.006361839052634,8.338481208013071
547.0,11.094309951784382,8.537385765296857
548.0,10.241509814601867,8.360225140712945
549.0,9.772698662470496,7.761998426435877
550.0,8.160306845003934,8.073131392604248
551.0,11.031451612903226,8.644354838709678
552.0,10.629921422663358,10.310442514474772
553.0,12.813751033912325,9.708043837882547
554.0,13.175020678246485,14.803618693134823
555.0,13.189123242349048,12.84172870140612
556.0,11.584077750206783,10.994251447477254
557.0,29.51048387096774,12.131451612903225
558.0,24.359447004608295,12.629032258064516
559.0,29.589400921658985,12.129032258064516
560.0,17.795093851860177,10.573249409913455
561.0,15.633148814207036,12.327084972462629
562.0,18.87665505226481,13.834107002360348
563.0,15.21367314825222,10.652076542654827
564.0,10.694739799932561,7.869989884230639
565.0,10.369635832303024,6.8596212206361695
566.0,11.020852534562211,10.340668202764977
567.0,7.670506912442397,9.001382488479262
568.0,7.535980148883374,10.094540942928038
569.0,6.415570719602977,11.129528535980148
570.0,6.98318858560794,11.210732009925557
571.0,9.792803970223325,9.266253101736972
572.0,44.06898263027295,10.079900744416873
573.0,29.603225806451615,10.26774193548387
574.0,28.289516129032258,11.044354838709676
575.0,48.30564516129032,11.09758064516129
576.0,33.808064516129036,9.208064516129033
577.0,21.574193548387097,8.842741935483872
578.0,20.108064516129033,9.749193548387098
579.0,14.623387096774193,8.619354838709677
580.0,12.046774193548387,13.123387096774195
581.0,13.005645161290323,12.920967741935485
582.0,9.350806451612904,10.516129032258064
583.0,12.673387096774194,11.008870967741935
584.0,28.585938792390404,10.46333746898263
585.0,19.23504256692691,9.59578163771712
586.0,15.59615031572152,8.5825682382134
587.0,12.675779721196715,7.7479619318525685
588.0,10.736365470354455,8.031937299521879
589.0,17.661565696302127,7.044256490952006
590.0,14.348092053501182,7.4052911093627065
591.0,27.814083398898507,5.969866247049567
592.0,16.19036191974823,5.530881195908734
593.0,11.343174665617624,4.861978756884343
594.0,7.012437208739333,5.070846698541427
595.0,5.9610573140470855,5.493409187193608
596.0,8.246067602735579,5.844265569206561
597.0,11.675462990982266,6.036550565877867
598.0,27.421391249715406,7.3724803520633575
599.0,30.44918137199805,6.8610570978981675
600.0,22.884268105353865,7.727548611891648
601.0,14.769435390206436,6.760705855906485
602.0,19.53341950470196,7.661234123861975
603.0,26.15803079689783,6.924319058858791
604.0,21.920085422052374,5.550672511333408
605.0,17.415495860027722,5.538196395788843
606.0,13.872578771870668,4.702221722678056
607.0,12.890206436626578,5.409295268067888
608.0,8.311693080064442,5.184294331422577
609.0,29.51477651642876,6.097890674759282
610.0,27.501674721816343,7.578299801431195
611.0,24.19122925330636,9.538409950919785
612.0,17.298808282209926,20.237250558284167
613.0,14.792530101166406,65.42354079373501
614.0,12.86193325334818,64.35430111883372
615.0,13.915568177758725,37.550441181724
616.0,13.852177330046796,22.046725967206086
617.0,23.224270353302607,15.538402457757295
618.0,30.035330261136707,11.72811059907834
619.0,26.31512494848451,9.907140983852234
620.0,19.436364317560226,8.29573639054363
621.0,17.738151436813908,7.763459593121277
622.0,12.735285302161776,8.597186317485296
623.0,8.341313551384362,8.56453486193848
624.0,6.480255516840883,8.619010153235173
625.0,7.2533625566670406,10.493930538383726
626.0,18.76475216365067,10.719905586152636
627.0,32.13948521973699,9.496496946536286
628.0,40.38642238956952,8.159342100333447
629.0,32.975272563785545,31.0548874152336
630.0,21.07302958143717,31.318745191524364
631.0,13.932659558617877,97.47369202927909
632.0,11.657958043517848,54.29252957838762
633.0,8.753223148992824,30.20583543098318
634.0,7.386052959232839,19.16507349833974
635.0,6.691543966130904,18.96309617474055
636.0,11.298340264508635,12.056105054138099
637.0,19.2394440073433,8.758195646472593
638.0,13.827095275561051,8.047761417706344
639.0,13.453673522910345,10.076595106964893
640.0,13.539620096661796,8.732688921359259
641.0,13.56266719118804,8.180015735641227
642.0,10.609421715184894,9.32816679779701
643.0,12.873800157356413,10.815420928402832
644.0,10.280802517702597,10.929897718332022
645.0,18.70507474429583,9.894689221085759
646.0,14.809795436664045,10.601278520849725
647.0,14.342800944138473,9.856687647521637
648.0,12.507356412273799,9.956667977970103
649.0,11.352871754523996,9.470672698662469
650.0,10.626435877261999,9.75428796223446
651.0,21.316443745082612,8.799803304484659
652.0,23.404996066089694,10.471675845790717
653.0,18.302419354838708,9.79516129032258
654.0,13.169871794871796,9.701157981803142
655.0,10.429693961952026,10.353804797353185
656.0,8.928556658395369,11.022870140612074
657.0,9.246133167907363,11.988047973531845
658.0,8.16274990417398,10.793728943492908
659.0,24.767892735378965,11.95186860739575
660.0,19.245167846839756,10.82173485444532
661.0,15.129438762129556,14.333851298190401
662.0,11.828429058484133,12.571361132966167
663.0,9.820143638160946,14.58765357380621
664.0,13.201469668542838,12.387375173999878
665.0,10.52433829611249,14.023821339950372
666.0,35.93757237386269,12.120781637717121
667.0,27.636931348221673,10.659181141439205
668.0,36.42822580645161,10.704032258064515
669.0,37.612096774193546,15.947580645161292
670.0,31.43790322580645,15.401612903225807
671.0,74.74193548387096,13.093548387096774
672.0,63.490322580645156,13.042741935483871
673.0,59.06048387096774,15.880645161290321
674.0,36.20564516129032,13.991129032258064
675.0,28.114732494099133,14.787116443745083
676.0,15.997088906372934,11.978225806451611
677.0,10.898937844217151,11.57216758457907
678.0,9.042584579071598,11.165519276160504
679.0,10.059008654602675,10.355625491738788
680.0,11.065460267505898,9.971990558615264
681.0,8.136113296616836,11.908261211644373
682.0,6.854838709677419,11.669944925255706
683.0,8.650472069236821,10.000590086546026
684.0,9.022482297403618,9.270712037765538
685.0,8.290420928402831,9.135444531864671
686.0,6.61559795436664,10.74171911880409
687.0,10.750099284402982,10.397030834363642
688.0,10.503932037016222,10.740214866434378
689.0,8.976808662095838,9.562249447379266
690.0,9.613502678805588,9.922745494736052
691.0,8.125791465287925,11.118729159641827
692.0,7.591454048181035,10.734067663257278
693.0,8.703383162863886,9.482297403619196
694.0,7.155258326776816,9.484470420741072
695.0,27.268817204301076,9.00816754711326
696.0,42.60765801206399,8.27080289236072
697.0,45.205087857330184,8.588587913528904
698.0,26.44400734329924,8.702083099172006
699.0,15.633831628638866,9.024390243902438
700.0,10.245633359559402,8.244689221085759
701.0,17.016601101494885,9.134539732494098
702.0,32.4544846577498,11.274508261211643
703.0,58.51514555468135,10.682415420928404
704.0,34.61160503540519,11.77104642014162
705.0,21.80015735641227,10.551652242328874
706.0,14.822580645161288,9.90241935483871
707.0,10.639516129032259,9.975806451612904
708.0,14.794354838709678,11.67741935483871
709.0,14.375806451612902,10.136290322580646
710.0,13.61209677419355,8.802419354838708
711.0,16.46451612903226,9.23225806451613
712.0,39.39758064516129,9.25241935483871
713.0,26.21290322580645,8.27016129032258
714.0,19.579838709677418,7.69758064516129
715.0,13.59758064516129,7.701612903225806
716.0,13.427398676592224,7.427171215880893
717.0,29.02619933829611,6.6732630272952855
718.0,28.63447063688999,7.1515508684863525
719.0,47.411186931348226,6.169727047146402
720.0,51.3126843390022,13.295839133329299
721.0,49.33760863996487,12.136695606828535
722.0,35.83652705423743,10.468866236593989
723.0,19.755993941865256,12.435565990800836
724.0,14.615398623174958,9.720831775888222
725.0,15.265606471304237,8.402115337196669
726.0,26.108650856093814,10.609681165936083
727.0,43.01131467535873,12.39009403918924
728.0,31.89528305421303,9.730133752950433
729.0,20.26477089655689,8.78367239893597
730.0,14.33812895732644,11.169570267131242
731.0,9.853958263084934,13.372747368026676
732.0,7.530665767487168,13.514330673260648
733.0,6.510621557828481,10.44906522797947
734.0,8.15016297628414,9.819264920759807
735.0,7.363605709789817,8.405267693229929
736.0,20.35332134427335,9.556517178075007
737.0,33.706904949233824,9.933123524783635
738.0,20.496234685849164,9.631149076467722
739.0,36.32732007043573,9.792476864860815
740.0,25.515810572852274,9.62204488404331
741.0,18.132329249559778,9.244202165523959
742.0,15.779775954441572,8.671274961597542
743.0,12.838317157686634,9.407454215470244
744.0,40.37653185073272,9.250194081621451
745.0,27.080261354537242,8.036340531125813
746.0,37.752337038963574,8.65779598209657
747.0,42.17121179249516,11.712454245965672
748.0,51.67386010265632,9.994136600352178
749.0,30.251320669888724,9.155258326776817
750.0,29.108838185156046,8.484732681428197
751.0,24.24049305009179,7.781312052751864
752.0,16.80435352740624,9.152575774605673
753.0,21.8683826008767,8.300558240605447
754.0,17.078715671949347,13.465816192724139
755.0,42.59865123075193,26.207332059495712
756.0,27.33001011576936,30.964798995916226
757.0,18.079367577085907,49.743805027912025
758.0,22.598055524334043,125.0523940654153
759.0,26.290579221460415,76.81767168708554
760.0,29.07414484283092,45.576036866359445
761.0,32.71500409945692,33.58109475103967
762.0,25.152105099445592,23.544565583904685
763.0,17.311843640352595,14.266138398711174
764.0,11.585261297902873,12.20718594282717
765.0,8.508995715827911,13.262522947810123
766.0,6.209261548836687,11.166745344872803
767.0,10.309194110374284,11.507654265482746
768.0,9.207976471469784,8.908205012925706
769.0,21.677336930051325,13.301260724588811
770.0,16.3900153609831,41.57753456221198
771.0,10.42626728110599,36.31643625192012
772.0,13.876344086021504,81.80568356374808
773.0,22.167434715821813,59.53917050691244
774.0,50.854070660522275,42.23118279569892
775.0,36.42089093701997,29.63901689708141
776.0,21.6036866359447,23.25115207373272
777.0,14.665130568356375,12.383256528417817
778.0,10.748079877112135,17.059139784946236
779.0,8.083717357910906,14.05453149001536
780.0,7.698924731182796,11.715821812596005
781.0,8.988479262672811,11.342549923195083
782.0,12.782642089093702,9.849462365591396
783.0,20.23024615038777,8.796560638417443
784.0,19.72551674503992,8.750314756389447
785.0,14.382727650553752,9.945817900468148
786.0,13.46011546440617,12.685799063006169
787.0,18.99603315463012,19.087062357923976
788.0,24.881100762995622,18.89522276039393
789.0,29.62179386309992,16.053268892135925
790.0,29.994767899291894,12.892840283241542
791.0,25.85626896706755,15.072267805627364
792.0,26.704344160953127,16.92726293507175
793.0,17.05136562886366,12.567260499793939
794.0,13.888940092165898,11.78890168970814
795.0,12.581566820276496,9.90453149001536
796.0,12.745161290322581,8.997580645161289
797.0,15.968548387096773,14.99274193548387
798.0,18.112863886703384,14.458792289535799
799.0,15.237345921846316,11.474730246150386
800.0,11.252192398474854,9.511176123902324
801.0,10.949080070205168,7.97534612646729
802.0,7.980657265629729,8.358276918465744
803.0,6.66326332990377,8.228233659862298
804.0,5.984319836994896,9.601674433617784
805.0,14.472639653815893,9.37560975609756
806.0,21.8375295043273,10.59586939417781
807.0,17.18394777265745,9.746812596006144
808.0,25.064908583417626,11.160080176838635
809.0,21.066472781087256,11.748844179686037
810.0,27.178416882095085,13.580182458506613
811.0,25.465456520924654,14.28267955490615
812.0,18.8752013787419,12.920909669926193
813.0,15.08886890712225,11.163051215765613
814.0,18.838709677419352,10.679723502304148
815.0,29.319021392978904,13.06299876362819
816.0,41.74491776254168,11.981806601476153
817.0,25.13063579483721,13.006432879997003
818.0,18.578674459555657,11.725285676819901
819.0,22.566679779701023,10.716483084185679
820.0,34.15454366640441,9.612450826121165
821.0,25.238158929976397,8.744531864673485
822.0,32.75442615344268,8.143937743347657
823.0,19.667142266335816,8.00721670802316
824.0,13.110587262200164,9.072559966914806
825.0,10.091583953680729,8.589102564102564
826.0,8.092969396195203,8.036889991728701
827.0,7.129032258064516,7.441935483870967
828.0,7.662096774193548,8.418548387096774
829.0,6.089516129032258,8.045967741935485
830.0,5.981596360628618,8.510628618693135
831.0,7.802894954507858,9.94079818031431
832.0,7.733705541770058,10.536931348221671
833.0,6.703143093465674,9.866046319272126
834.0,9.703184449958643,9.788668320926385
835.0,18.879956726986624,8.941974822974036
836.0,46.39728560188827,12.34618410700236
837.0,61.965578284815095,10.898898505114083
838.0,37.63749016522423,10.437175452399686
839.0,30.87915027537372,10.752950432730133
840.0,21.216915814319435,9.512981904012587
841.0,16.94490090292608,10.95633359559402
842.0,18.41534599677794,9.785770484432954
843.0,12.269828781237122,9.96920310216927
844.0,13.40766550522648,10.791427822112322
845.0,11.141755647971227,9.520418867783146
846.0,14.13599340601701,8.624686223820763
847.0,12.216076580120639,8.676167996703008
848.0,41.40465512719643,9.184661496384548
849.0,27.46229346970889,7.9804484657749795
850.0,40.72722265932337,7.973603461841069
851.0,24.011211644374505,8.298446105428795
852.0,16.982533438237606,8.628481510621558
853.0,11.604405979543667,8.867348544453186
854.0,7.5705743509048,9.173564122738002
855.0,9.51778127458694,10.05814319433517
856.0,8.907277734067664,10.296813532651456
857.0,8.20241935483871,9.133064516129032
858.0,10.020967741935483,9.025806451612903
859.0,32.522580645161284,7.780645161290323
860.0,21.24340363937138,7.884057071960298
861.0,22.075330851943754,8.160173697270471
862.0,18.36064929693962,8.67363523573201
863.0,15.352502067824648,8.69609181141439
864.0,10.621009098428452,9.77667493796526
865.0,13.870967741935482,10.190322580645162
866.0,9.734677419354838,10.919354838709678
867.0,28.505645161290325,11.002419354838711
868.0,18.050723738626964,9.410111662531019
869.0,12.8677005789909,8.854652605459057
870.0,10.354818031430934,8.489826302729528
871.0,9.646360628618693,8.136042183622827
872.0,9.393341604631928,10.303101736972705
873.0,9.86209677419355,10.431451612903226
874.0,25.06532258064516,8.629032258064516
875.0,16.788709677419355,9.240322580645163
876.0,11.464516129032257,9.27983870967742
877.0,27.684146341463414,8.883261211644374
878.0,22.048111723052713,8.036644374508262
879.0,13.965184893784421,12.565499606608967
880.0,10.384666179611106,11.507173766438125
881.0,8.6919298639991,9.33302236709003
882.0,6.919293020119142,7.9599022142295155
883.0,20.696074519500957,9.489392491851184
884.0,16.31659548162302,9.005996403282005
885.0,12.176730920535011,9.702537372147916
886.0,11.565165224232889,7.919630212431157
887.0,32.79622344610543,11.430841856805664
888.0,22.32179386309992,11.645003933910306
889.0,24.648308418568057,11.935873515417182
890.0,16.601101494885917,10.709714885167283
891.0,11.054917387883556,9.5392004795624
892.0,10.521164437450825,9.127586077704095
893.0,9.325885129819039,8.930040088419318
894.0,23.76030684500393,9.443430369787567
895.0,37.57409520062942,9.062391817466562
896.0,22.849125173279383,9.140796523172604
897.0,15.78648233486943,10.595181896519424
898.0,17.27140234535986,11.188977557978344
899.0,16.775167659510696,10.532651455546812
900.0,15.926529541793114,9.95987411487018
901.0,26.14375632235585,8.309430144992694
902.0,21.36416769697651,8.795942452512083
903.0,21.39560151361882,10.599584129481848
904.0,18.780750065565172,9.859315874264734
905.0,16.662582893110034,9.116537409613727
906.0,14.309018021055786,8.14851448053651
907.0,21.103368176538908,8.35435165411562
908.0,16.61515117455322,8.333108538458657
909.0,12.949664680978607,9.34013337829231
910.0,9.852328500243528,8.33623693379791
911.0,8.548387096774194,6.016335094226519
912.0,10.318534337417105,23.21992431905886
913.0,8.043516541156196,70.90242029148402
914.0,6.522910344310817,52.39091828706306
915.0,6.119441010078303,33.982241204900525
916.0,56.10141995429171,23.966730358547828
917.0,41.23043347945,17.184594057922148
918.0,25.19999686332733,11.620375477144549
919.0,16.584637448560745,9.355502638725884
920.0,15.148337607049847,8.77373873084996
921.0,11.393677252065629,6.85820801890368
922.0,11.046377796539726,7.530563302846618
923.0,9.745116331347646,11.744797871941852
924.0,9.101071522235959,12.177632909969653
925.0,7.820402008167546,11.78157806002023
926.0,6.734992132179386,10.036428009441384
927.0,5.9693154996066085,9.428796223446106
928.0,8.412273800157356,10.301337529504327
929.0,7.7861526357199065,9.943194335169158
930.0,10.972147915027538,8.893312352478363
931.0,9.263414634146342,8.778992918961448
932.0,7.88072383949646,7.872974036191975
933.0,26.425806451612903,8.990774980330448
934.0,18.107002360346186,8.254366640440598
935.0,11.461132966168371,8.631195908733279
936.0,35.15483870967742,8.569472856018882
937.0,41.301127720954625,11.298935970926529
938.0,25.695410437975344,11.50312652204863
939.0,16.193439736240677,11.355793151249484
940.0,12.413847364280093,9.342662320632423
941.0,9.628721204691416,9.155192979429525
942.0,7.317573295762966,8.42095192787744
943.0,7.63321623088699,8.302529465118893
944.0,5.608026571102706,7.698509122054032
945.0,5.561890472618154,8.60196146597625
946.0,7.4992319508448535,8.285601888276947
947.0,8.121239369075717,13.146303997602187
948.0,7.777190813382788,11.797309954666368
949.0,8.191712562286913,9.61631261473905
950.0,6.143625192012289,9.153609831029184
951.0,7.663594470046083,9.55990783410138
952.0,10.647465437788018,9.668202764976957
953.0,23.196031150644806,7.439359839959989
954.0,15.668138463187226,7.986961025970778
955.0,11.66279426999607,9.874432893937769
956.0,14.34406057960483,9.649216746695384
957.0,24.628944605489348,7.772296732719765
958.0,26.782891236746465,7.487936008392342
959.0,18.705155295792586,6.961709939680041
960.0,12.352793076317859,6.666404405979543
961.0,8.658431681091004,7.04531057717525
962.0,6.034959349593495,8.586778026589199
963.0,5.9284159454497765,8.836189957433074
964.0,28.819853134015208,8.880998204522989
965.0,17.77043010752688,12.799586435070305
966.0,10.489516129032257,12.575806451612902
967.0,14.490322580645161,11.791129032258063
968.0,27.681451612903224,11.84032258064516
969.0,16.084491315136475,11.53424317617866
970.0,10.682568238213399,11.309057071960297
971.0,7.3271712158808935,10.33517369727047
972.0,6.1853598014888345,9.003473945409429
973.0,10.15397022332506,8.42754342431762
974.0,24.891129032258064,8.07258064516129
975.0,29.71451612903226,9.029032258064516
976.0,59.8516129032258,8.46532258064516
977.0,49.047974036191974,10.338571990558615
978.0,29.280900865460268,9.96276553894571
979.0,25.17169551534225,10.255645161290323
980.0,21.925491738788352,11.197442958300549
981.0,14.457907159716758,9.88217001985688
982.0,16.69944925255704,10.637780525270689
983.0,18.503840245775727,10.670450713723726
984.0,15.650818628001947,11.24671237495785
985.0,30.435184144468174,10.393297366153384
986.0,37.645011427072795,8.45233224682477
987.0,36.7233711738039,7.52907721703945
988.0,29.742714772769844,9.179592371960585
989.0,18.608886890712224,8.64494960848226
990.0,13.371872541306058,8.611073957513769
991.0,11.309323367427222,8.818843430369787
992.0,30.891876475216364,26.39329268292683
993.0,32.12570457342291,38.8549693356735
994.0,42.19752970606629,63.656113700094814
995.0,34.39443755169562,45.727899493635135
996.0,35.93863301660312,31.581908047368316
997.0,27.36931650830156,113.01023018418769
998.0,20.171341463414635,77.54299763965382
999.0,27.161880409126667,51.927143981117226
1000.0,22.547125500887418,38.84819314584743
1001.0,19.235684814060654,24.36988354231415
1002.0,40.0526280089186,13.871133745980048
1003.0,38.879727357797634,15.099117135555666
1004.0,39.697793786425706,18.953802039360014
1005.0,56.938062041642816,12.378519281388291
