time,emg_right_hand,emg_left_hand
0.0,12.512195121951219,6.951219512195122
1.0,10.472319008904375,5.1583430120015485
2.0,8.543885847021734,6.851833416293346
3.0,8.799845141308555,6.029268292682926
4.0,9.333258401708441,6.284515379716009
5.0,22.705574912891986,6.705987036828893
6.0,43.851635382713276,8.863362182008917
7.0,40.177981342025404,9.688565434041436
8.0,30.089786819527184,9.982878123712112
9.0,23.918549323742084,7.33782923082687
10.0,16.898928477764038,6.986302498969689
11.0,11.919433516915813,5.099449252557042
12.0,7.424468922108575,4.136191974822974
13.0,11.369354838709677,3.608064516129032
14.0,23.139634146341464,4.7864280094413845
15.0,25.397639653815894,7.30531077891424
16.0,21.126239181746655,7.197010228166797
17.0,16.602635719905585,7.285601888276947
18.0,13.578481510621558,7.1647128245476
19.0,10.351696264658498,8.131923682140046
20.0,11.158489753100294,8.352852084972461
21.0,10.258788542954553,6.556451612903225
22.0,12.361095500355926,5.49615975422427
23.0,11.685268442546176,4.811472031771009
24.0,11.40369412910719,5.603124648758008
25.0,11.140871454797498,5.167809373946273
26.0,7.906155632984902,4.660851972575025
27.0,6.469514068412574,4.734880671387359
28.0,6.770949009029261,5.031175302536436
29.0,6.103029110936271,4.740007867820614
30.0,6.4107592446892205,4.665912667191188
31.0,8.830153422501967,4.16648308418568
32.0,8.433644299576637,3.750829867745682
33.0,9.145933086058971,4.048113596343336
34.0,7.86879659810423,4.078738151436814
35.0,9.56584991195534,3.823240043460342
36.0,6.60629238320033,5.200762429283279
37.0,9.712516391292944,7.485941890524896
38.0,14.706464725937582,12.496954029448128
39.0,12.54717414109625,12.778374733056086
40.0,9.743921171930612,13.028511483271515
41.0,7.328612640965119,9.076280394140348
42.0,6.866456858116968,8.370859091079389
43.0,7.79145030159979,13.316114045933086
44.0,12.143010752688172,10.90353302611367
45.0,12.925192012288786,8.585023041474654
46.0,10.151612903225807,6.454339477726575
47.0,6.427419354838709,4.754185867895545
48.0,6.32816679779701,4.978499306882469
49.0,5.796538158929977,4.225825184519127
50.0,4.719236821400472,3.750393391030684
51.0,5.80316679779701,4.605035405192762
52.0,7.1109362706530295,5.007789142407553
53.0,7.5958461941939515,4.517632996429219
54.0,6.73970122455567,4.548588331416813
55.0,6.506140934858481,4.013407068934212
56.0,6.3770279811979265,4.373963565938388
57.0,7.27490266093728,4.449216244023482
58.0,6.7725216365066885,5.165302911093627
59.0,6.826986624704957,4.677006294256491
60.0,6.1909126671911885,4.656648308418568
61.0,6.542741935483871,5.025806451612903
62.0,11.598996852871753,4.9698072383949645
63.0,11.743565246712375,4.1359596867858075
64.0,12.256971451050916,3.8507493162489226
65.0,12.88671743284253,4.066759394552471
66.0,11.370874077404368,4.613352815555806
67.0,9.91140084672736,4.614701584803867
68.0,9.721599040875201,5.633464463676894
69.0,7.902049379940804,5.880255516840883
70.0,7.927496159754224,4.898540706605223
71.0,10.688018433179723,4.356720430107527
72.0,11.40952380952381,4.278878648233487
73.0,9.617511520737327,5.019969278033795
74.0,8.539631336405531,5.0963133640553
75.0,6.2678955453149,4.678341013824885
76.0,6.770978981679217,4.391828706305496
77.0,8.959299014649133,5.45697426098685
78.0,8.378343823760819,4.725491738788356
79.0,14.998446105428798,4.730487804878049
80.0,19.240715971675847,7.294335169158144
81.0,14.880625491738789,6.690755310778915
82.0,11.892643587726202,5.393981117230528
83.0,9.986413959761716,4.401253231426324
84.0,9.296836012138922,4.188529841519613
85.0,8.201997864448689,4.931637068674834
86.0,9.522153534899404,4.722693042598628
87.0,10.079723502304148,5.025783972125435
88.0,13.394335169158143,4.371046420141621
89.0,9.50131505001686,4.578764377505526
90.0,7.024390243902439,4.776478962946312
91.0,6.09441384736428,4.517665130568356
92.0,5.3690007867820615,3.8225619122550674
93.0,5.319508448540706,4.923682140047207
94.0,5.601419954291709,4.827207672998389
95.0,4.712921958712674,5.84263609456371
96.0,6.334824472668689,5.523442358847551
97.0,5.326079952043759,4.651815218613016
98.0,5.89577760293732,4.256652054999813
99.0,6.96921059533176,4.761685586901952
100.0,5.6506753212693415,4.511920684875051
101.0,6.237492038514855,5.023491064403732
102.0,7.603692255816567,4.47687610055824
103.0,8.93670057322693,4.613811771758271
104.0,6.89455996403282,4.751260724588812
105.0,7.635714285714285,4.886251920122888
106.0,7.030625491738789,5.09832808811959
107.0,8.53426435877262,4.915440597954366
108.0,6.905265819939306,4.151095875014049
109.0,6.285236596605598,4.626315986662171
110.0,9.254715072496348,4.955093477202053
111.0,7.3130568356374805,4.579191487767412
112.0,7.804915514592934,4.613671274961597
113.0,6.318125960061444,4.535407066052228
114.0,6.693855606758833,4.443586789554531
115.0,7.545157543741335,4.2767599565396575
116.0,7.212286913191711,4.417181821587801
117.0,8.1424337791765,4.069074781761643
118.0,5.799442696039863,4.285747068300176
119.0,5.87090030347308,3.9402045633359557
120.0,6.851657862200742,4.458693941778128
121.0,6.11561387733693,4.362449889475853
122.0,6.17635532576524,4.572353976995991
123.0,5.263984114495523,4.858757633659286
124.0,5.725014626076781,5.560419818838387
125.0,6.64551282051282,5.0487386269644325
126.0,5.8417080231596366,4.584449958643507
127.0,7.5269417377796595,4.519309951784381
128.0,7.1429653614154,4.782815872823741
129.0,6.710523210070811,4.536900078678206
130.0,7.891148701809598,4.504740361919748
131.0,8.723288749016522,4.615420928402832
132.0,10.885483870967741,5.3066876475216365
133.0,11.452970102281668,5.1903225806451605
134.0,12.662254130605822,4.513985051140834
135.0,10.495239968528718,5.139653815892997
136.0,7.2484067663257274,4.306648308418568
137.0,8.675336255666704,4.846910943763815
138.0,7.230665767487167,3.990725338128957
139.0,8.384674609418905,4.315340881253548
140.0,7.2447566595481625,4.1814607632074186
141.0,7.105069124423963,5.42039206531732
142.0,7.101783372672436,4.511299400835199
143.0,7.142945187516391,4.68405253283302
144.0,9.256628638867033,5.314004720692369
145.0,10.402757483796035,9.067063804278597
146.0,8.51451800232288,8.279794687347795
147.0,6.608557191562699,6.598591285452025
148.0,7.342624854819976,5.568955827807126
149.0,6.882327376269155,5.089277284477914
150.0,6.973728972312765,4.690644786632198
151.0,8.025023416132779,4.465700048705556
152.0,7.800080551496759,4.508223745831928
153.0,8.66717151848938,4.220102281667978
154.0,8.627537372147916,4.331825334382376
155.0,7.966581889374783,5.1532907617148185
156.0,12.225226428558358,5.796944358040729
157.0,10.559584103342909,5.379746765959782
158.0,10.14058782552781,5.182211624334655
159.0,10.831411424284642,5.259731004179616
160.0,10.094149713386535,4.749794874676858
161.0,11.507244014836461,5.205198381476903
162.0,11.128545202502714,5.300026226068713
163.0,12.513367017712616,5.16278416293969
164.0,16.25645871398163,5.630294333165173
165.0,13.483723718386042,5.6829303144601475
166.0,10.59937937446034,6.731371867357083
167.0,7.540165877706361,5.317606056566406
168.0,8.593188715297291,4.087460192574276
169.0,8.29620096661796,5.055138436176989
170.0,8.277132741373496,4.930410999962533
171.0,8.367079727248885,4.7074219774455806
172.0,7.888781799108314,5.5416142145292415
173.0,12.699396800419617,5.203566745344872
174.0,10.41753025364355,5.392480611442059
175.0,9.42274362144543,4.72150912292533
176.0,7.697839159267168,4.544861563823011
177.0,7.31787119253681,5.151463039976022
178.0,8.18922670563111,4.990759057360158
179.0,7.890892997639654,4.696243115656964
180.0,8.58375295043273,6.075944138473643
181.0,8.134500393391031,5.434756097560976
182.0,9.153310104529616,6.212558540331947
183.0,21.30757558727661,6.351755273313103
184.0,21.78518039788693,5.974461428946086
185.0,18.018358248098608,4.8103105915851785
186.0,14.034749541043798,5.059757970851598
187.0,9.293642051627888,4.7790341313551385
188.0,6.235412685924093,5.137274736802667
189.0,5.585841669476602,4.757465063129894
190.0,5.507513768686074,4.4341856805664825
191.0,6.360601888276947,5.589791502753737
192.0,7.9169944925255695,6.0243312352478355
193.0,7.1697875688434305,4.91014948859166
194.0,7.419354838709677,4.448387096774193
195.0,7.449999999999999,4.970967741935484
196.0,6.600806451612902,4.9967741935483865
197.0,7.077616050354051,4.635916601101495
198.0,10.256665168034168,5.266614214529241
199.0,12.587933198456408,5.075703420628676
200.0,11.175744633022367,4.674218837810498
201.0,10.360683376419018,4.626990371286201
202.0,8.783803529279533,5.629781574313438
203.0,9.70134876924806,5.946611217264246
204.0,11.587767412236335,6.067269866247049
205.0,11.513516224137781,6.180007377883067
206.0,10.959523089027417,4.564274042244144
207.0,8.762216304545179,4.694017430248744
208.0,8.97957392725292,5.154148762331296
209.0,7.962170913272408,4.787617260787992
210.0,8.184559402045632,5.132022029897718
211.0,9.2828518976434,5.172001798358997
212.0,7.229152148664344,5.591508373609082
213.0,7.788061518864036,5.698429245813195
214.0,8.075482372335243,4.8415533325840165
215.0,7.565160541006331,4.474002472743621
216.0,5.666758457907159,4.5669551534225015
217.0,4.891129032258064,4.122580645161291
218.0,6.000806451612903,4.148387096774194
219.0,5.537096774193548,4.667741935483871
220.0,7.391832092638544,4.715239867659222
221.0,8.654619822873167,5.492287518408682
222.0,6.730420510514924,5.094262038774234
223.0,5.753113481063913,4.440276180677439
224.0,5.593088998596473,5.272557445177429
225.0,10.532359222209733,5.34686598478888
226.0,8.545880633921545,5.506241804353527
227.0,8.400314712824546,5.5480330448465764
228.0,8.289673485444531,5.035306845003934
229.0,10.011703383162864,4.647836349331235
230.0,9.60605822187254,4.6789929189614465
231.0,8.850472069236822,3.912352478363493
232.0,8.022875688434304,5.337450826121164
233.0,8.199055861526357,5.428560188827694
234.0,8.722265932336743,4.860228166797797
235.0,8.666011014948857,4.443489378442171
236.0,6.116620771046421,4.611900078678206
237.0,6.394927128994792,4.765838672211607
238.0,8.371286201341276,4.789030010115769
239.0,7.209561275336256,5.202697538496122
240.0,8.513513918549323,5.0285714285714285
241.0,8.162343111910381,4.615780600202315
242.0,7.186163875463639,4.524403356936795
243.0,8.782022029897718,4.274567269866247
244.0,9.629346970889063,5.093784421715185
245.0,8.682730133752951,5.410936270653028
246.0,10.810995279307631,4.882572777340677
247.0,10.466384736428008,4.655226480836237
248.0,9.956176239181747,4.133258401708441
249.0,9.069354838709677,4.216589861751152
250.0,9.299807987711212,4.523271889400921
251.0,6.621668352628227,4.306344835337754
252.0,8.802385635607507,8.078671649619722
253.0,12.216898954703833,19.049318122213478
254.0,13.994267730695741,18.618935221610283
255.0,10.666104679479975,11.76261661234124
256.0,10.187104267356037,8.320332696414521
257.0,8.66498070510659,6.639429021018321
258.0,9.180248023678393,5.287535124199168
259.0,9.758888764002847,4.589636956277397
260.0,12.450335319021391,8.770548124836086
261.0,14.568598029298267,10.198413322842905
262.0,21.347816679779704,9.764260424862313
263.0,21.94689221085759,7.360759244689221
264.0,19.238394964594807,7.651534225019669
265.0,19.572423288749015,6.408025177025964
266.0,16.294866247049566,4.9940991345397325
267.0,11.05912667191188,5.0196302124311565
268.0,7.804563335955939,4.881589299763965
269.0,6.864516129032257,5.824193548387097
270.0,6.147541306058221,5.481176239181747
271.0,5.765302911093627,5.67244295830055
272.0,7.447551609156644,5.333398898505114
273.0,8.362210108276198,6.16522423288749
274.0,9.524231014199543,5.197205050391517
275.0,10.228598591285452,3.9607583080439097
276.0,8.171960585965307,3.7836049604735678
277.0,9.552954179311378,3.8885766737851712
278.0,11.036508560938143,4.564272601251359
279.0,9.322324940991345,5.167466561762392
280.0,7.357553107789142,5.043686073957513
281.0,7.464260424862313,4.088375295043273
282.0,8.408339889850511,4.585719905586153
283.0,8.145869394177812,5.510719905586153
284.0,8.50357985837923,5.772698662470496
285.0,6.09758064516129,5.014516129032258
286.0,6.171658986175115,4.7913210445468515
287.0,6.622650893559626,4.466844629275786
288.0,7.078664156457233,5.136648121089506
289.0,8.029566145891874,5.567920834738301
290.0,8.6749915701922,4.653639803679143
291.0,11.059087332808812,5.413571990558616
292.0,21.04921321793863,5.635582218725413
293.0,34.774193548387096,6.1227380015735635
294.0,28.0294256490952,6.861369000786782
295.0,19.1669551534225,6.517230527143981
296.0,13.297875688434303,6.785365853658536
297.0,12.921636506687646,6.253894571203777
298.0,9.815342250196696,5.859441384736428
299.0,8.135465573710501,5.0044956361041475
300.0,7.527921614549979,4.545835544251917
301.0,7.679932483120781,5.166072768192048
302.0,7.460933983495874,4.129407351837959
303.0,7.378391854061076,4.116041205423307
304.0,7.861664044059795,4.32486231313926
305.0,9.054346970889064,4.273308418568057
306.0,8.920239968528715,3.918391030684501
307.0,8.041384736428009,3.7584972462627855
308.0,9.630448465774979,4.179012588512982
309.0,8.687497658386722,4.474279719755723
310.0,9.444614289460866,4.46585740511783
311.0,9.535918474392115,5.296894084148215
312.0,10.716818403207073,5.416425012176388
313.0,11.826151137087408,4.736536660297478
314.0,9.27490165224233,4.670692368214004
315.0,11.918095987411487,4.340991345397325
316.0,10.499724626278521,4.628383162863887
317.0,8.53807275860777,5.187482672061743
318.0,8.048422689296016,5.72804503390656
319.0,8.970659729727394,5.595296095197748
320.0,8.34393529365992,4.923129951611462
321.0,9.251039243997544,4.88493240302839
322.0,6.632969698803688,4.9047549879965295
323.0,5.346726784885714,4.8814097520627815
324.0,6.32183320220299,5.2046420141620775
325.0,5.536290322580645,4.8822580645161295
326.0,7.8164830841856805,4.414830841856805
327.0,7.643843430369788,4.229858379228953
328.0,8.322324940991345,5.248800157356412
329.0,7.822856018882769,4.78044846577498
330.0,6.646105428796224,4.420062942564909
331.0,6.508733280881196,4.449606608969315
332.0,7.871046420141621,4.920397324940991
333.0,7.676652242328875,4.979150275373721
334.0,8.063217938630999,4.974881982690794
335.0,8.704996066089691,5.144295830055075
336.0,8.544630212431155,5.184028324154209
337.0,8.693961447678992,5.312962234461055
338.0,10.591201153947022,5.437913528904874
339.0,8.772783897193811,4.715903300738076
340.0,6.830835300288486,4.828339140534261
341.0,6.932756359821663,4.536750215428421
342.0,6.381641751901389,4.348390843355438
343.0,8.518253343823762,5.395496609343974
344.0,8.426317859952793,5.3897324940991345
345.0,11.304990518267466,5.023610018358248
346.0,12.699672678488572,4.236401783372672
347.0,11.378695786248894,4.336173241916751
348.0,11.181165359686208,4.864624779888352
349.0,10.411668439087794,4.294546850998463
350.0,7.927394065415308,4.249817354164325
351.0,8.750134876924806,4.913864223895695
352.0,9.199980330448465,5.306038552321007
353.0,8.693941778127458,5.610680566483085
354.0,8.925413060582219,4.557199055861526
355.0,7.5190401258851285,4.507317073170732
356.0,6.583595594020457,4.693784421715185
357.0,6.232789142407553,4.999921321793863
358.0,11.392053501180172,5.274980330448465
359.0,9.312077104642015,4.292879622344611
360.0,9.56787962234461,4.013296616837136
361.0,10.290794649881981,4.9082612116443745
362.0,9.642171518489379,4.936113296616837
363.0,8.76475216365067,4.507395751376868
364.0,7.459836649057735,4.645665205499981
365.0,8.95399385560676,5.113863287250384
366.0,7.631029185867896,5.650883256528418
367.0,7.504224270353303,5.119393241167435
368.0,6.667080663894197,4.582857517515267
369.0,8.092859952793075,6.255920535011802
370.0,7.800865460267506,5.245298977183321
371.0,9.538335955940205,5.168214004720692
372.0,9.33143756322356,6.110527893297366
373.0,9.769574013712486,5.847553482447267
374.0,8.997146978382226,6.164625716533663
375.0,10.090278558315536,5.766049417406617
376.0,8.659252182383575,5.148750515154921
377.0,8.300056198718668,5.054790004121239
378.0,8.443891199280657,5.610400509535049
379.0,10.483653666029747,5.532392941440936
380.0,7.6187235397699595,6.1420160353677264
381.0,9.871458544078529,5.204072533812896
382.0,7.529661683713611,4.933910306845004
383.0,7.312206361694953,4.641246112921959
384.0,6.320776666292009,4.812755235847289
385.0,6.512788018433179,4.878840245775729
386.0,5.706836574126109,5.970783222809187
387.0,5.8005957064178935,5.606762579146528
388.0,6.578638867033831,5.64846577498033
389.0,8.58044846577498,5.027458693941778
390.0,7.720338316286389,4.975963808025177
391.0,7.302340676632572,5.396715184893784
392.0,7.439668802217976,5.538814581694204
393.0,7.2141892398186656,5.492410363043723
394.0,8.170132254317934,5.53812146416395
395.0,9.589000037465812,7.3473455471881906
396.0,9.378666966393165,7.032407927765913
397.0,14.110074556966769,5.665561425199505
398.0,14.696972762354353,6.306129406916189
399.0,11.153429995129445,7.469566520549998
400.0,10.316777190813383,6.71058034543479
401.0,10.069755722902851,6.640927653516167
402.0,9.627010040837735,6.3601176426510815
403.0,10.575887003109663,6.618729159641827
404.0,9.28086246300251,7.137059308381103
405.0,6.951337529504327,7.587116443745082
406.0,9.39785601888277,6.6080448465774975
407.0,8.023832003296992,6.1315761867296095
408.0,11.136096437001235,5.215988535461392
409.0,10.12233618073508,5.039544228391593
410.0,11.039226705631112,5.034730808137574
411.0,12.604567082537185,5.301674721816342
412.0,9.990839608856916,5.029485594395115
413.0,8.444344535611254,5.334404855569293
414.0,8.670638042785956,4.815510846352703
415.0,7.810614064665992,3.860627177700348
416.0,6.78764190176464,4.627548611891649
417.0,8.197265932336743,4.603225806451612
418.0,22.564358772619983,5.710896931549961
419.0,18.827590832980288,4.7709299158748415
420.0,26.69660422844923,5.799322156993282
421.0,18.928544049708485,5.251273981722447
422.0,14.781423873792088,5.20974399322157
423.0,14.224700921947186,4.232724081583248
424.0,10.97592446892211,4.9119197482297405
425.0,12.932007043572739,10.01598010565359
426.0,10.077726574500767,9.690238282567156
427.0,8.419354838709676,6.937169832527818
428.0,8.459480723839496,6.322243452849275
429.0,6.359559402045633,5.394402607620545
430.0,7.907122250946012,4.4483533775429915
431.0,8.028698812333745,4.346442621108238
432.0,7.335624367764415,4.531055411936608
433.0,9.482131617399123,5.963796785433292
434.0,11.468298302798695,5.628436551646622
435.0,13.759264358772619,6.003619197482298
436.0,11.280448465774981,6.644453186467349
437.0,8.605162788955079,7.621228129331985
438.0,9.98275448653104,6.814154583942154
439.0,9.499638454909896,5.890161477651643
440.0,7.3265894870930275,5.512232587763666
441.0,9.49402420291484,4.9995129444382
442.0,8.112847027087781,5.132516578622008
443.0,8.644149713386536,4.948634371136338
444.0,8.549361207897793,4.593758195646473
445.0,7.43400397137612,4.743771308680829
446.0,6.717462815181147,5.304604548349631
447.0,7.127810872578772,4.970162226967892
448.0,6.718036042111573,5.285002435277809
449.0,6.048111723052714,4.664083398898505
450.0,6.7290125885129815,4.265873328088119
451.0,7.016286388670338,4.795869394177813
452.0,7.090204563335956,4.6195712037765535
453.0,8.035424862313139,4.916640440597954
454.0,5.9183910306845,4.520456333595593
455.0,6.691360527749198,4.844140491032702
456.0,7.667159414149973,5.600433738828704
457.0,8.916010582651023,5.948104734237701
458.0,8.821144551750374,5.634074003625538
459.0,8.263444030399183,5.419318669790739
460.0,9.529039751227005,4.445686748342138
461.0,7.8988235734891905,4.197931887152973
462.0,8.923682140047207,4.0997339927316325
463.0,7.644374508261212,4.104154958600278
464.0,7.32564909520063,4.317065677569218
465.0,6.961365254205537,5.946858491626391
466.0,7.610659023640927,5.140777790266382
467.0,8.227025963808025,4.921715184893785
468.0,9.54860346184107,4.609559402045633
469.0,10.454543666404405,4.7604248623131395
470.0,9.864673485444532,4.249036191974823
471.0,8.245239968528717,4.493469708890637
472.0,7.231038552321007,4.506687647521636
473.0,7.287588512981904,4.390558615263572
474.0,8.825452399685286,4.5458300550747435
475.0,9.757505338878271,5.553309167884305
476.0,12.072428908620882,5.520271814469297
477.0,9.719547787643775,5.697904724438949
478.0,24.389382188752762,6.82301150200442
479.0,30.779794687347795,5.731894646135402
480.0,18.7178449664681,5.0651905136562885
481.0,13.063167359784197,4.644168446292758
482.0,12.051021231587715,4.848345596181945
483.0,31.475971445286945,5.033312583037209
484.0,31.819155405308038,7.666004386382041
485.0,30.964577515324955,10.114314245942886
486.0,29.143822608024024,10.414065818786511
487.0,20.020215687800267,7.97047376960831
488.0,12.511720747125938,7.099753013836413
489.0,12.764196516832236,5.574023223039745
490.0,10.490430655104142,9.121909142522831
491.0,9.52412956830738,24.59785464993962
492.0,8.999202914840208,28.00355925218238
493.0,13.76371436064591,28.675973174478287
494.0,13.715958562811434,20.414023453598592
495.0,10.164037503278259,14.52211794237758
496.0,9.340820875950694,9.801912629725376
497.0,8.900721216889588,7.139115244839084
498.0,7.125360608444795,6.1143156869356705
499.0,7.651927616050354,4.594177812745869
500.0,6.014948859166012,3.60102281667978
501.0,6.289142407553108,3.391699449252557
502.0,9.931746656176237,3.297344610542879
503.0,9.845594020456334,4.865499606608969
504.0,15.602251695328015,6.827258251845191
505.0,15.832577460567233,10.0652420291484
506.0,13.228788730283615,8.34754036941291
507.0,9.610932524071785,6.0178299801431185
508.0,8.816874601925742,5.599394927128994
509.0,7.217623918174665,4.876258851298191
510.0,8.284618410700237,4.08691974822974
511.0,35.43101888276947,3.2543469708890638
512.0,25.576396538158928,3.92918961447679
513.0,28.22997639653816,5.631785995279308
514.0,27.536703383162862,5.339889850511408
515.0,24.188670338316285,5.633123524783635
516.0,15.038886703383163,5.658202202989772
517.0,13.61904012588513,4.677891424075531
518.0,9.174508261211646,3.860424862313139
519.0,8.571700054469527,3.6093062196130647
520.0,7.968304787266234,4.277981197926122
521.0,9.8485111662531,4.4618072787427625
522.0,6.42909429280397,4.119210090984284
523.0,6.173053290795226,5.166613494032848
524.0,7.87784178187404,6.192818740399385
525.0,8.509033007380765,5.684932186879472
526.0,9.430126259787944,4.743459405792215
527.0,9.30699861376494,4.7656026375931955
528.0,9.73245476003147,5.058300550747443
529.0,8.376711250983476,4.104956726986624
530.0,8.472777340676632,5.884107002360345
531.0,7.895712037765539,5.662352478363493
532.0,8.361834513506427,5.1630671387359035
533.0,9.20569105691057,5.176193286126409
534.0,8.187254130605822,4.956164999438013
535.0,9.018133453223934,4.948671836948784
536.0,9.273818890262636,5.660409875988161
537.0,8.96755460642164,5.00378404705706
538.0,10.364186429882732,5.149807051065903
539.0,9.582630849349968,5.4153797160091415
540.0,8.491161814843954,5.891176801168934
541.0,6.882499719006407,5.4239518938968185
542.0,7.6554764930846755,5.447323932296395
543.0,9.238910551813778,5.038296112489661
544.0,7.6654230178423735,5.1118899917287015
545.0,7.33763873158051,5.3241098267062075
546.0,6.360802114224617,5.598779479109927
547.0,8.644338195242995,5.447197845427585
548.0,9.566523936331173,4.958276342068631
549.0,10.225907897505063,5.307709599605745
550.0,10.173536167477945,4.918213572422856
551.0,9.859085459518187,5.625238844554344
552.0,8.16099434266232,5.733587164212656
553.0,7.838758382975534,7.074710576598854
554.0,7.44720692368214,5.422738001573564
555.0,8.144138473642801,5.533162863886703
556.0,8.115422945792734,5.11299753878432
557.0,7.912550182573786,4.7206116726179665
558.0,12.620633863906875,5.155585143940769
559.0,9.488054746197939,5.158119273854915
560.0,8.755042321958136,5.509822815526984
561.0,8.672227529878985,5.142918024802368
562.0,7.2713320969615225,5.408840995091978
563.0,6.531576186729609,4.9108913116780935
564.0,9.64028886141396,4.811590049080214
565.0,7.709680229290772,5.253316661046794
566.0,8.029897718332023,5.978213630062568
567.0,9.7073732718894,5.478878648233486
568.0,8.619281780375408,5.374157019219961
569.0,8.311784871304933,6.45036529167135
570.0,7.070192199617848,6.292963920422615
571.0,7.290153984489153,6.476003147128245
572.0,8.575137686860739,5.184107002360346
573.0,8.959424525120827,4.559701772132929
574.0,10.726199842643588,4.691356637068675
575.0,9.385523210070811,4.991232999887602
576.0,9.861526357199054,4.5172530066314485
577.0,10.649881982690795,5.141002585141059
578.0,8.886384923757072,5.0378592034768275
579.0,7.830980480311715,5.188207635532576
580.0,6.7803997602188,6.198667153722228
581.0,6.963665655089731,5.5505039151774005
582.0,6.243831253980742,5.137958487879809
583.0,8.603955092900804,5.004344953499162
584.0,11.364074320643951,4.919511186427
585.0,11.265908128063911,5.023388465717341
586.0,11.132092350345694,4.522109728718698
587.0,9.938508803024932,4.532730710150064
588.0,8.923348694316436,5.284562211981567
589.0,8.294495052334511,5.144700460829493
590.0,11.0445724671586,6.6806076954778755
591.0,13.868917534261612,7.103976908861361
592.0,12.856458016943261,6.083252520447185
593.0,11.730840375599126,6.459445000622978
594.0,11.667828106852497,6.145143428714322
595.0,9.096699261923495,7.018991855977932
596.0,10.1806505633377,5.810731951280503
597.0,10.455434416095315,4.7164437450826115
598.0,9.509591247986213,4.661294069161889
599.0,9.00066501817092,8.417979843392905
600.0,8.336162002173017,8.136870106028248
601.0,8.138587913528905,6.54762092090967
602.0,9.598940654153086,6.324348094863437
603.0,9.544700460829493,6.510846352703158
604.0,9.55598516353827,5.756209958412947
605.0,9.262116443745082,5.092840283241541
606.0,11.404445318646735,4.479484657749803
607.0,11.385748004945487,5.472826046232813
608.0,32.366359447004605,6.191959836649058
609.0,36.7132347982466,5.656955528080626
610.0,48.437655951444306,7.916597354913641
611.0,32.4454984826346,6.844704207410738
612.0,22.122518826570754,5.038711550709977
613.0,14.635846352703158,3.9306067588325657
614.0,13.5360683376419,3.4955453149001534
615.0,9.209812296279644,2.946041736915065
616.0,7.463661908508486,3.2260162601626017
617.0,7.799803304484657,5.107631785995279
618.0,7.41266719118804,5.011349331235248
619.0,7.318725413060582,4.847088906372934
620.0,6.9821119478475895,4.2981089131167804
621.0,6.940208165817921,4.976422115780888
622.0,5.530587953876703,4.5837755740194766
623.0,5.8254041264269425,5.078119100935781
624.0,9.251018349602141,6.429696843937599
625.0,7.539609433315176,19.83472028889023
626.0,10.258047656513432,29.919368888389346
627.0,14.12420478813083,30.14801056535911
628.0,8.640328200517029,19.4102956052602
629.0,6.221580307968978,12.174778015061257
630.0,5.855085984039564,8.895178149938182
631.0,5.742564909520063,11.095869394177813
632.0,5.711283261715991,13.461550061530392
633.0,5.07419001795477,14.88924277270068
634.0,4.9782816449220855,13.81518590247937
635.0,6.723011790202978,9.190657467368718
636.0,8.763866241285596,12.14859387923904
637.0,10.852073732718893,9.17983870967742
638.0,9.693010752688172,9.565668202764975
639.0,9.111201341276086,6.96045015173654
640.0,7.398187519273279,5.668655596960082
641.0,6.1853840822172845,3.9460213468671377
642.0,6.110109428992199,4.284763230475268
643.0,4.829171457967682,4.494916177449616
644.0,5.728118380439388,4.678221267324336
645.0,6.673446105428796,4.8364476789929185
646.0,9.27516391292945,5.2514611666854
647.0,8.837949121426698,4.897357723577235
648.0,8.047731445056385,5.957776029373196
649.0,8.499793938031546,5.56726986624705
650.0,8.539620096661796,5.4560713349068966
651.0,7.797767037578211,4.470431980817503
652.0,7.570926529541794,4.071544715447154
653.0,7.522284665242966,3.7615788093364806
654.0,8.327578584541605,4.429714135851036
655.0,7.496892210857592,4.3739968528717545
656.0,8.367800944138473,4.697482297403619
657.0,7.816325727773407,4.869708890637293
658.0,7.060798583792289,4.492289535798584
659.0,10.397283080150899,4.6651273981722445
660.0,8.350598660453105,4.780105005144344
661.0,7.382154168936229,4.593681534830236
662.0,7.526639633641993,4.532481994795134
663.0,6.908874498174262,4.453495128003389
664.0,10.055524334045185,4.766095313026863
665.0,9.646566258289312,4.910191637630662
666.0,9.87973474204788,5.190963246037991
667.0,10.596987748679329,5.245678318534337
668.0,11.957030459705518,4.428110599078341
669.0,12.303015997901914,4.135330261136713
670.0,9.616889588250721,5.21534815826712
671.0,8.92724888539208,5.541190994947879
672.0,9.633097298714922,5.618638377096284
673.0,9.01127720954629,5.167698417501722
674.0,6.765853658536585,4.70189836389679
675.0,8.63273013375295,4.881038552321007
676.0,10.560492300775543,5.0496384549098945
677.0,11.577571091379117,4.742836536660297
678.0,9.741421265595143,4.670080738825821
679.0,9.516275148926605,5.07979843392904
680.0,9.75184331797235,4.585139185493237
681.0,12.381682027649768,4.788729346970889
682.0,10.83540238282567,4.953186467348544
683.0,11.176207335806076,5.069066351953842
684.0,8.967404743171855,4.646322730508411
685.0,9.508879397549736,4.220486306245551
686.0,7.560076430257389,4.182233711738039
687.0,7.1063092428159305,4.331478775617249
688.0,7.424506387921022,4.3926979131542465
689.0,6.9310703982615856,4.488898879772208
690.0,5.767974223521037,3.937919148776741
691.0,8.2468509984639,5.192012288786482
692.0,7.627649769585252,4.747695852534562
693.0,7.970967741935484,5.024231950844854
694.0,8.952419354838709,4.657680491551459
695.0,9.422010228166798,4.565110898804841
696.0,10.029032258064516,5.754870555617999
697.0,8.566129032258065,5.7498623131392606
698.0,7.8395161290322575,5.899527930763179
699.0,9.131490015360983,5.9894721067026335
700.0,7.788198269079464,6.019913079315125
701.0,7.599842643587726,5.7054718819077594
702.0,8.141738788355624,5.442153722228467
703.0,8.915420928402831,5.53184594057922
704.0,9.854014461803605,5.438237608182534
705.0,7.301337529504327,4.8001573564122735
706.0,9.34539732494099,4.792289535798584
707.0,9.668260404688414,4.390102685145958
708.0,7.511549557182915,4.710000201738991
709.0,8.71737981399665,4.95232504186084
710.0,8.636817365692266,4.422267949726644
711.0,6.8683693437430655,5.280764187294478
712.0,6.951140833988985,5.607710464201416
713.0,5.38705743509048,5.612745869394178
714.0,6.300786782061369,5.445082612116444
715.0,8.224725562923831,6.0144374508261205
716.0,8.911339964782137,6.093764752163651
717.0,10.84397643400397,7.313414634146341
718.0,11.540133378292307,6.495416994492524
719.0,10.90393765688809,5.22714398111723
720.0,7.7439024390243905,4.963493312352478
721.0,9.617933011127347,5.306949908208759
722.0,8.634064853321345,4.644643325465513
723.0,8.252919523434866,4.725413060582218
724.0,8.166910194447567,4.6270653029110935
725.0,8.123487317822487,4.86662170769173
726.0,11.254280469071972,5.098797347420478
727.0,10.843190588587913,4.753883331460043
728.0,11.04740174590686,4.608662095837548
729.0,9.345101345022666,4.774433329586753
730.0,11.996302124311566,4.986388670338316
731.0,9.032140047206923,4.961880409126672
732.0,6.774940991345398,4.7712627852084974
733.0,6.782769472856019,5.397639653815893
734.0,6.905940204563336,4.75940204563336
735.0,6.3036227279146235,4.638340495067482
736.0,5.759472654279893,7.542557344307935
737.0,7.332962133591559,7.981359317315258
738.0,6.393467691500737,5.855589178720572
739.0,7.8415017450422635,5.4037977364885315
740.0,5.759874114870181,5.8545043273013375
741.0,6.748052714398112,5.12816679779701
742.0,5.542171518489378,5.191502753737215
743.0,5.477025963808025,4.938867033831628
744.0,5.634972462627852,4.544807238394965
745.0,5.576829268292682,4.903304484657751
746.0,7.07779307631786,5.126081825334383
747.0,7.356569630212431,4.994453186467348
748.0,7.216443745082612,5.015322580645162
749.0,6.893705743509047,4.982258064516129
750.0,6.907120377655389,5.592859952793076
751.0,6.5930763178599525,5.213768686073957
752.0,9.574980330448465,4.644335169158143
753.0,7.925806451612903,4.84758064516129
754.0,8.631451612903227,4.576612903225806
755.0,8.333870967741936,5.008536585365853
756.0,7.337529504327302,4.742328874901652
757.0,12.960503540519277,4.684264358772619
758.0,9.573723352440897,4.915058446667416
759.0,8.225394327675996,6.2020905923344944
760.0,8.174141096249672,5.728747517889925
761.0,9.14607920272751,5.561462665317897
762.0,9.941553332584018,5.741710688996291
763.0,8.695578745932798,4.8656562425248495
764.0,7.267930993737445,4.3910499938037315
765.0,9.561384851707432,4.0768614024318195
766.0,10.21940210327307,4.9970459647879
767.0,7.991674375978073,4.971725560041847
768.0,7.721478213630062,4.201578247349294
769.0,7.010220673635308,5.415286051478025
770.0,7.677076542654826,5.575231351391855
771.0,9.018376981004833,5.556970514405604
772.0,8.323271889400921,4.969201228878648
773.0,11.08294930875576,4.825268817204301
774.0,43.281162189502076,4.308601213892324
775.0,41.759208160053944,4.391643250533887
776.0,27.082052939192987,4.72471619647072
777.0,17.375838297553482,4.589393428496496
778.0,11.048518227117755,4.874189801805852
779.0,8.483346446367689,6.201453673522911
780.0,10.016260162601625,5.772245326139897
781.0,8.975872016784683,4.944344535611254
782.0,11.577498033044847,5.207598066764078
783.0,11.473642800944138,5.051140833988985
784.0,10.642800944138473,5.817466561762392
785.0,8.922895357985837,5.391030684500393
786.0,9.208654602675058,6.13831628638867
787.0,8.784893784421715,6.078206136900079
788.0,10.506530291109364,5.616207710464201
789.0,7.638788355625492,5.194020456333595
790.0,7.300259234602271,4.223954487683835
791.0,9.851012873829553,4.484634693918721
792.0,9.322381788156768,4.038016271690544
793.0,9.699518420210786,4.897600170613545
794.0,9.894718185040766,5.049864114380243
795.0,8.681259600614439,6.612903225806452
796.0,7.906054475291297,5.0038589786819525
797.0,10.727451200779289,4.275047768910868
798.0,8.284316810910045,4.789269791315425
799.0,7.531980817504028,4.790854595181896
800.0,8.132143073291775,3.893802578224293
801.0,8.392192701083339,3.590882406342674
802.0,8.526818316747505,4.048474997334163
803.0,8.87670577521089,3.719123415268183
804.0,10.369902848266342,3.443747388200575
805.0,8.242235210370536,3.7732868757259
806.0,8.14814918886516,4.315870518152186
807.0,7.944888726537035,4.04702896107302
808.0,8.818815331010454,4.845288674084897
809.0,11.394773519163763,4.215878011314675
810.0,31.558755760368662,6.855145929339478
811.0,41.115755310778916,5.653697875688434
812.0,28.03923326214829,5.800888876400284
813.0,20.334063916676033,6.398251283204075
814.0,14.08415945449777,5.500911355887752
815.0,10.335244089768088,5.229852759357086
816.0,11.49437263497059,5.833258401708441
817.0,11.703023491064403,5.629013525158293
818.0,10.29447004608295,5.463680641414709
819.0,7.817818740399385,6.645204376006893
820.0,27.761762391817467,6.022482297403619
821.0,29.30192574275973,4.899201978194897
822.0,35.43805964557342,4.56832640215803
823.0,22.709981829080963,6.100311902888613
824.0,16.99526432130681,5.229257052939193
825.0,10.083706118167173,4.811560076430258
826.0,10.423957513768686,4.975826121164437
827.0,7.046656176239182,5.425413060582219
828.0,7.556372934697089,4.268174665617623
829.0,10.358026113671274,3.463018433179723
830.0,12.551190476190476,3.9569124423963133
831.0,19.486305308905624,4.564962908845678
832.0,23.449751788992543,4.013864223895695
833.0,31.118611142332618,6.964740923906934
834.0,53.14164044059795,8.716011014948858
835.0,97.72761605035404,14.873170731707315
836.0,83.73556254917388,21.133831628638866
837.0,63.20476003147128,18.716325727773405
838.0,34.321262785208496,18.298367427222658
839.0,21.030274249747105,16.136338091491513
840.0,12.916474654377879,16.75668202764977
841.0,14.310253456221197,25.4573732718894
842.0,19.5747311827957,20.57054531490015
843.0,15.990178337267244,13.148126709377692
844.0,10.172738938218876,8.311851373122026
845.0,8.14161140459331,6.1966514930126255
846.0,6.203870218425687,4.318890262635345
847.0,6.782887490165224,3.8031471282454756
848.0,5.491129032258065,3.558064516129032
849.0,4.56505376344086,3.980769230769231
850.0,7.343817204301075,6.440077395722557
851.0,9.00357142857143,5.74544192366773
852.0,10.783565534240703,5.094016910821112
853.0,8.467136819047967,4.35526966705493
854.0,6.664751205222908,4.094012004743346
855.0,7.854956247772744,4.099233344921596
856.0,8.945604083947817,6.149616672460798
857.0,15.728048780487804,9.12155782848151
858.0,18.931687647521635,7.473446105428796
859.0,14.561900078678203,6.595161290322581
860.0,12.346223446105427,5.683792289535798
861.0,9.863099921321792,4.838709677419354
862.0,9.115499606608969,3.763650668764752
863.0,8.053973249409914,3.4147915027537374
864.0,6.910464201416207,3.0612903225806454
865.0,5.118670943533257,2.486191974822974
866.0,4.6325062034739455,2.621774193548387
867.0,4.819478908188586,2.811290322580645
868.0,6.547642679900744,3.6258064516129034
869.0,8.794635472054827,5.024270353302612
870.0,7.613259151024691,5.350058072009292
871.0,7.81675939455247,6.167239893597092
872.0,8.040772170394515,5.6650331572440145
873.0,6.895976171743284,4.901596043610205
874.0,6.137004982953055,5.523225057135363
875.0,8.295253081563072,5.471919373571616
876.0,6.920321456670787,6.70529391929864
877.0,6.676984751414334,7.751976321606534
878.0,6.289633209696152,6.480079427522385
879.0,9.566466728917554,6.0788114259200015
880.0,9.198919831807324,5.935383289671252
881.0,8.1469103673667,5.320132542516492
882.0,6.459135750166435,4.752277128850693
883.0,8.925122556436481,4.797784905888761
884.0,11.407474429583004,4.294177812745869
885.0,9.050558240605447,4.781965831179049
886.0,9.849826720617436,4.957072608744521
887.0,11.790255142182758,5.050867333558128
888.0,11.064285714285713,6.085229103443108
889.0,9.274137349668427,5.41010078303548
890.0,7.919710763927915,4.807200929152149
891.0,9.131845940579222,5.198407702971039
892.0,9.729594245251208,5.316638567307332
893.0,9.858896257165338,5.267209920947136
894.0,8.971428571428572,4.708218125960062
895.0,10.597849462365591,4.645199692780338
896.0,11.22231182795699,4.297196620583717
897.0,12.442223970626802,4.85574819227455
898.0,11.800183582480987,4.9737926641939225
899.0,9.82340863961635,5.831179049117679
900.0,9.765381589299764,4.9693154996066085
901.0,10.743981117230526,4.704012588512981
902.0,11.585995279307632,4.341778127458694
903.0,12.261844816604848,5.025690307594321
904.0,10.586469221835076,6.04431643625192
905.0,9.692526507062308,5.989506762579147
906.0,10.145742010415496,6.0705106590236415
907.0,7.389550784908771,4.657206549024015
908.0,8.27964482409801,5.44419467236147
909.0,7.093402270428235,5.950957251507999
910.0,8.720422614364393,6.467768161552583
911.0,8.1499831403844,5.587149226330973
912.0,10.466809036753961,7.234959349593496
913.0,9.544464426211082,6.20849349968154
914.0,7.449651567944251,5.232050129257053
915.0,8.952245138810834,4.942637967854333
916.0,11.418384474167322,5.073661533850362
917.0,11.19699711513244,4.586791427822113
918.0,12.375226668165299,5.2157459443258025
919.0,10.72027462440523,5.647792327001611
920.0,9.369776329099697,5.561818590536136
921.0,10.368086620958376,5.668081001086509
922.0,9.860301225132067,5.886942227717208
923.0,10.945335506350455,5.795231538720917
924.0,10.111947847589075,5.34331797235023
925.0,9.985987786145142,6.662395564047806
926.0,10.829998876025627,5.905024165449028
927.0,10.600839234198794,5.7503278258589035
928.0,11.866981379491214,4.279884605297665
929.0,31.254969840020983,4.537896669289273
930.0,35.094533737964106,4.562380577722827
931.0,22.960983102918586,4.55190888314413
932.0,17.582773219437264,4.577291971076392
933.0,13.593921171930612,4.318676707504402
934.0,9.691315424674983,5.901273837623169
935.0,11.855199246072573,6.117333125830372
936.0,11.92091197551465,6.270704328454132
937.0,10.557173982587043,7.263372845355535
938.0,9.926820478236685,7.265711000250732
939.0,11.311989348181323,7.531933841139191
940.0,9.362481735416432,7.166947660260012
941.0,8.71821962459256,6.6656925555430675
942.0,9.394636551123842,6.586356083794468
943.0,10.408915817804626,7.4909506993473105
944.0,9.874215505095787,8.11399844734703
945.0,12.47835199217923,8.644326412613605
946.0,10.815100465011723,7.4830601378567625
947.0,10.973283129144654,7.361953467460941
948.0,10.515106215578285,7.0961447678992915
949.0,10.537568843430371,6.414083398898505
950.0,12.399110753298082,6.841212742209943
951.0,12.77439333701021,7.828702733174582
952.0,10.972471739618099,7.33140638080989
953.0,10.434308253758694,7.633445125888815
954.0,9.999777014744168,6.868700289518908
955.0,9.672806736929473,6.290081934849834
956.0,11.569506287051528,5.75679211949865
957.0,9.273950020606197,6.997714585440785
958.0,7.942696039863624,5.866022254692592
959.0,11.030103780300475,6.472181634258739
960.0,10.793469708890637,7.186167622044884
961.0,11.766550522648084,6.751301936982504
962.0,13.008625782819331,5.691775965969514
963.0,13.42040820443653,7.085790946530521
964.0,12.604597343385699,6.734907762051742
965.0,11.061592066470116,5.9636904401656565
966.0,12.37012014997853,6.648204667087437
967.0,11.894323929414409,7.3889138660971865
968.0,9.025840170844106,6.593355438162677
969.0,9.857159716758458,6.251439623843243
970.0,9.59594807238395,5.130332321756398
971.0,10.562451762766475,6.355258326776816
972.0,10.647276235435164,6.1072215353489945
973.0,12.815039713761191,6.092444082274924
974.0,9.675396200966617,6.600427110261886
975.0,10.91834326177363,7.7164212655951445
976.0,11.195346746094188,7.988010940017234
977.0,10.265969802555167,6.810853845865648
978.0,7.502109325240718,7.255887752425911
979.0,9.359656813157994,7.797759544415721
980.0,9.419796935296542,6.427597317447829
981.0,9.371376119291146,6.656063841744409
982.0,8.289221085759245,6.127340676632572
983.0,14.486447678992919,8.126750590086546
984.0,14.401000337192311,7.49325240717845
985.0,14.775637855456896,6.243872466374434
986.0,15.700879509947171,6.236019632085721
987.0,13.347577835225357,14.986774568206512
988.0,26.391071896894083,18.464950732456632
989.0,32.96942040388146,14.320164100258513
990.0,27.290787156719492,15.325212618485631
991.0,27.979955790341315,18.081001086508557
992.0,26.631729796560638,18.04312315012551
993.0,28.935296541905508,18.320332696414518
994.0,33.326420890937015,20.98479262672811
995.0,27.19539170506912,21.899231950844854
996.0,26.40599078341014,20.607987711213518
997.0,23.175392454385374,21.81900827994455
998.0,31.624468922108573,19.193410700236036
999.0,43.42271833202203,18.086624704956726
1000.0,35.67199055861526,14.393981117230528
1001.0,26.73526214147772,11.213339532222301
1002.0,19.52089621629354,8.12799155997425
1003.0,21.647466204134183,6.711832129318361
1004.0,25.309620198841284,5.6595450969172445
1005.0,19.975030398397823,4.552038480795366
