time,emg_right_hand,emg_left_hand
0.0,5.611111111111111,3.888888888888889
1.0,5.0513227513227505,3.4867724867724865
2.0,7.323582766439909,3.4625850340136055
3.0,21.92137566137566,4.593650793650793
4.0,15.094572452636967,4.373271889400922
5.0,11.850855925049473,4.6348099251325054
6.0,9.210681418745935,4.8155616445939025
7.0,8.574426730878344,4.373730643085482
8.0,9.605761752535948,5.910431629786469
9.0,10.497773349386252,7.733889650018683
10.0,8.681464413722479,8.060880696364567
11.0,7.499830475636927,10.26981013271336
12.0,7.4849254784738655,13.25606482058095
13.0,6.598197506262022,13.490935636096928
14.0,5.941123842736745,11.999052047439143
15.0,7.446816401655111,12.145583371389822
16.0,8.080184331797234,11.065284178187405
17.0,6.691705069124423,9.951536098310292
18.0,6.835099846390169,9.789836149513569
19.0,7.515668202764976,9.342498719918074
20.0,6.324142345110086,9.507270865335382
21.0,7.962826420890937,11.03568868407578
22.0,8.955709165386583,10.274987199180746
23.0,8.279825908858166,8.650486431131592
24.0,8.860701484895033,9.681438812083972
25.0,8.159293394777265,9.988120839733742
26.0,7.452150537634408,11.989810547875063
27.0,7.281182795698925,12.73773681515617
28.0,6.672401433691755,13.0642089093702
29.0,7.098566308243727,14.89068100358423
30.0,6.842293906810035,10.419354838709676
31.0,7.926600102406553,10.293522785458268
32.0,7.947619047619047,9.318356374807987
33.0,7.918253968253968,9.09152585765489
34.0,7.10563236047107,9.813236047107015
35.0,5.826113671274961,8.607782898105478
36.0,6.440706605222734,7.6476702508960575
37.0,6.73379416282642,6.941218637992831
38.0,6.425806451612903,6.776139272913466
39.0,5.160931899641577,8.777854582693292
40.0,5.838812083973374,10.154070660522272
41.0,5.429544290834613,9.376574500768049
42.0,5.425345622119815,7.626011264720942
43.0,6.097004608294931,6.529544290834613
44.0,5.697798259088582,5.302918586789554
45.0,4.5798771121351765,6.42457757296467
46.0,6.795724526369687,5.124679979518689
47.0,5.742780337941628,5.578878648233486
48.0,6.002662570404506,6.686840757808499
49.0,4.715616999487967,7.536047107014849
50.0,6.099743983614951,8.50458269329237
51.0,6.003277009728622,8.661341525857654
52.0,7.511776753712238,7.58090117767537
53.0,20.114965195610356,7.2648524100137
54.0,16.22348362187072,7.327203470751858
55.0,12.853229266132491,8.25723972820747
56.0,12.858175225917162,9.28961957349054
57.0,10.386128063547417,10.317979269592172
58.0,8.91930640317737,12.007289547612128
59.0,8.007144241015208,12.694056960185993
60.0,9.099002228034486,11.331347476508766
61.0,6.754092802479899,10.159522425651458
62.0,6.245325971132422,10.519277341857986
63.0,7.325627240143369,9.377598566308244
64.0,8.248387096774193,10.597849462365591
65.0,8.175268817204302,9.253225806451614
66.0,6.3492831541218635,9.39856630824373
67.0,6.91510496671787,8.09231950844854
68.0,7.121351766513056,8.48415258576549
69.0,7.808192524321557,7.870122887864823
70.0,6.439042498719918,7.59142345110087
71.0,5.255248335893497,5.8982590885816695
72.0,4.988095238095238,4.529365079365079
73.0,4.783922171018945,4.645058883768561
74.0,4.186431131592422,6.376446492575525
75.0,5.508090117767537,6.066359447004608
76.0,4.796902201740911,5.911981566820277
77.0,5.79047619047619,6.731080389144905
78.0,4.956169994879673,5.293855606758832
79.0,6.074859190988223,4.522043010752688
80.0,5.0069636456733235,3.6584229390681005
81.0,6.124219150025602,4.3471838197644646
82.0,7.054045058883768,5.136405529953917
83.0,5.868868407578085,7.580747567844342
84.0,7.866743471582182,6.408704557091654
85.0,7.882744495647721,11.315463389656937
86.0,7.840501792114695,11.196236559139784
87.0,6.946236559139784,11.408602150537634
88.0,6.391397849462365,8.524500768049155
89.0,6.923297491039426,7.633666154633897
90.0,7.16415770609319,6.830721966205838
91.0,6.479672299027138,7.958627752176139
92.0,5.621556579621096,8.095801331285202
93.0,5.415847414234511,7.818407578084997
94.0,4.306938044034818,8.04495647721454
95.0,7.902969790066564,10.747977470558114
96.0,6.408986175115207,10.8752688172043
97.0,8.53200204813108,14.679569892473118
98.0,7.83758320532514,15.29073220686124
99.0,9.356067588325653,14.666871479774706
100.0,8.724014336917563,15.00537634408602
101.0,8.153225806451612,14.451612903225804
102.0,8.036738351254481,9.39874551971326
103.0,8.190860215053764,10.25358422939068
104.0,8.812724014336917,7.92831541218638
105.0,8.329493087557601,9.114976958525347
106.0,12.971416116577405,7.877974287651707
107.0,12.697689625108978,6.840728055244184
108.0,10.51595950789499,10.823141805399871
109.0,8.746779037101618,10.177251906284162
110.0,8.33145403467984,9.933787243464662
111.0,7.765079365079364,9.825755248335891
112.0,7.96685902492354,10.036878122361992
113.0,7.624136117684504,10.311385809772904
114.0,8.286082395759815,11.828183944312975
115.0,8.716350451834323,13.708586927941766
116.0,7.907227965292481,13.050248405087114
117.0,7.535915639141445,11.58236669849573
118.0,7.090845684394072,12.700809565325692
119.0,5.839329652232878,10.940010517429872
120.0,5.61146953405018,10.497516641065026
121.0,6.232258064516129,8.906912442396312
122.0,7.438709677419355,8.979723502304147
123.0,6.020430107526882,9.37247823860727
124.0,7.358013312852022,8.414490527393752
125.0,6.4638802396866915,7.599476204314914
126.0,6.32127703740607,7.115163089356638
127.0,6.907233500781888,7.325016260500131
128.0,5.059453923970053,7.956466143562918
129.0,5.244524709040838,6.753092262769682
130.0,7.8412186379928315,6.524372759856631
131.0,6.563466461853558,5.396287762416795
132.0,6.1854070660522265,5.916333845366103
133.0,6.222964669738863,7.406810035842294
134.0,6.237071172555044,8.523502304147465
135.0,5.6766513056835635,8.69037378392217
136.0,4.831464413722479,8.805606758832566
137.0,8.02811059907834,7.542652329749103
138.0,7.067164860713248,9.137983144434756
139.0,7.0460248266699885,11.420143645950098
140.0,7.409213130180872,14.686774331935624
141.0,7.983728428889719,15.402526950914048
142.0,8.082049791727211,15.76029946997689
143.0,7.254334980141432,15.578929159574322
144.0,5.6217911459846945,12.74619781071394
145.0,6.615107042526397,10.417901772740482
146.0,7.917320546352804,12.16414801898673
147.0,7.509856630824373,9.75537634408602
148.0,6.189068100358423,10.96863799283154
149.0,7.745519713261649,10.483870967741936
150.0,7.391577060931899,8.8915770609319
151.0,6.758960573476703,6.801075268817204
152.0,5.758960573476702,8.63978494623656
153.0,6.771505376344086,12.85304659498208
154.0,9.14516129032258,13.577060931899641
155.0,10.193548387096774,14.81362007168459
156.0,8.967741935483872,15.59856630824373
157.0,19.83243727598566,10.900537634408602
158.0,19.668313474765085,7.074542284219704
159.0,14.28039329652233,5.516661823113436
160.0,10.674246827472633,4.7117359294778645
161.0,7.366014862789056,3.9701664798438987
162.0,6.269028936770873,2.9438646019291177
163.0,5.893164362519201,2.5923707117255503
164.0,5.1817972350230415,2.761239119303635
165.0,6.412186379928315,3.213927291346646
166.0,6.324065540194573,3.745673323092678
167.0,6.119918074756784,3.7751664106502814
168.0,5.27931387608807,4.59357398873528
169.0,6.407578084997439,4.8581669226830515
170.0,6.059549411162314,4.36041986687148
171.0,5.611239119303635,3.5309011776753714
172.0,8.459293394777266,5.031131592421914
173.0,11.096364567332309,6.257808499743984
174.0,10.47780545522481,9.21301255172223
175.0,9.117141334883271,7.182287125835513
176.0,8.245398624430882,5.668652523491232
177.0,9.161677806839096,4.665867480383609
178.0,8.249297684781556,3.7473602634892957
179.0,8.402765668894702,4.150053279085537
180.0,7.00201007459072,4.071442410152088
181.0,7.394233403910824,3.635772408353054
182.0,6.917546809482293,3.5925277812374583
183.0,5.717285949544014,8.300296148683245
184.0,5.344905273937531,9.85363543266769
185.0,5.233384536610343,9.865437788018433
186.0,4.441167434715822,10.816129032258065
187.0,4.810189452124936,12.003046594982077
188.0,6.330721966205838,13.83978494623656
189.0,7.685483870967742,15.025985663082437
190.0,6.39784946236559,15.5
191.0,8.629032258064516,15.693548387096774
192.0,7.112007168458781,13.875448028673835
193.0,6.232846902201741,12.216333845366103
194.0,5.123143881208398,9.89221710189452
195.0,6.235407066052227,8.0894777265745
196.0,5.453020993343574,8.819278033794161
197.0,5.962621607782898,8.444137224782386
198.0,5.84715821812596,8.665745007680492
199.0,5.363287250384024,6.359523809523809
200.0,5.833077316948284,6.801177675371224
201.0,6.852534562211981,7.7739119303635436
202.0,7.021249359959038,7.7261136712749625
203.0,6.338146441372247,7.670865335381464
204.0,5.757398873527906,9.459907834101383
205.0,6.595903737839222,7.10563236047107
206.0,6.240604198668715,6.708730158730159
207.0,5.77173579109063,7.373630312339991
208.0,5.581720430107527,8.459165386584742
209.0,5.460215053763441,9.757808499743984
210.0,6.017204301075268,11.761392729134664
211.0,6.539964157706093,10.62352790578597
212.0,5.174295954941116,9.163850486431132
213.0,5.7688684075780845,8.701331285202254
214.0,6.588274449564771,8.522580645161291
215.0,6.055069124423962,7.541986687147977
216.0,5.775012800819252,7.8813108038914494
217.0,5.248233486943164,7.44347158218126
218.0,5.736712749615975,7.687762416794675
219.0,5.287557603686636,7.765284178187404
220.0,5.149564772145417,9.126318484383
221.0,4.879646697388633,9.906682027649769
222.0,5.23968253968254,10.030773169482845
223.0,18.407784973914005,7.049438147825245
224.0,14.888032271903239,5.777855274629468
225.0,11.687234469492534,5.567330925395441
226.0,10.729369922918309,28.074884100690554
227.0,8.543640414608156,24.91465659207595
228.0,7.550422773003418,21.031235382848287
229.0,6.835247228795616,18.641961777445648
230.0,6.293241167434715,14.006246799795186
231.0,7.880491551459293,11.655453149001536
232.0,10.143239091626189,10.657984251532639
233.0,8.724256514579094,10.808049985469339
234.0,8.59062288094546,11.326964060835028
235.0,8.301583841906421,9.60030998740676
236.0,8.98726145500339,8.75893635571055
237.0,6.877240143369175,6.827060931899641
238.0,6.546594982078853,5.699820788530465
239.0,5.905017921146953,4.936379928315413
240.0,7.3810547875064,4.670455709165386
241.0,6.287301587301587,5.6757296466973886
242.0,4.783435739887353,6.125499231950844
243.0,5.22547363031234,5.433614951356887
244.0,5.780747567844342,4.7530977982590885
245.0,4.547055811571941,4.500972862263184
246.0,5.657040450588838,3.6044290834613415
247.0,7.183973374295955,3.4812596006144396
248.0,8.331822836661546,3.6713005632360467
249.0,7.146646185355863,3.418535586277522
250.0,7.115258576548899,4.811111111111111
251.0,6.115873015873016,6.359856630824373
252.0,5.2206093189964164,6.3979006656426005
253.0,7.075806451612904,7.494649257552483
254.0,5.977982590885817,6.9842805939580135
255.0,5.672247823860728,5.142165898617511
256.0,6.222324628776242,4.367229902713774
257.0,7.050332821300564,4.027854582693292
258.0,6.334306195596518,8.142959549411163
259.0,5.897926267281106,6.23394777265745
260.0,5.284536610343062,6.331131592421915
261.0,5.556886840757809,8.207834101382488
262.0,5.838351254480287,11.593317972350231
263.0,8.676344086021505,15.550691244239632
264.0,8.714177080306111,17.943441136989524
265.0,8.292431602109023,16.67049168984653
266.0,8.27842404616598,17.173183321570416
267.0,9.459027691285755,13.42591577752868
268.0,8.532381229155423,15.878728498083335
269.0,7.1517858872697575,15.074596255241417
270.0,6.518647679938002,13.93151215731861
271.0,6.539426523297491,11.014336917562723
272.0,7.185151049667178,10.819534050179211
273.0,5.403507424475166,9.859139784946237
274.0,6.5740399385560675,10.50673323092678
275.0,6.8040450588837675,11.268151561699948
276.0,6.377419354838709,10.24715821812596
277.0,5.8137480798771115,11.891679467485918
278.0,6.846390168970814,8.191807475678443
279.0,7.457757296466974,5.9346134152585766
280.0,7.386584741423451,7.83379416282642
281.0,6.593394777265745,9.38858166922683
282.0,7.826344086021505,9.904173067076293
283.0,8.476344086021506,14.253609831029186
284.0,7.792805939580132,14.203456221198156
285.0,7.823907086810312,12.704689943399622
286.0,7.475458407716472,11.4412338605887
287.0,7.163382045640111,10.02414995640802
288.0,7.363501058662349,9.521931609028382
289.0,10.061230816069525,8.00738157512351
290.0,8.399129544290835,9.515821812596005
291.0,6.909651817716334,9.89805427547363
292.0,6.855811571940604,9.655120327700974
293.0,6.077496159754224,8.260880696364568
294.0,5.817869943676395,9.29800307219662
295.0,6.254915514592934,7.395852534562212
296.0,7.153481822836661,6.599436763952893
297.0,10.635432667690733,6.746850998463902
298.0,9.661187916026627,6.343881208397336
299.0,9.310880696364567,5.673732718894009
300.0,10.434126292190808,6.121231369618466
301.0,8.745634574666832,7.668910615684808
302.0,7.431957072279653,9.456767135799394
303.0,8.320344999377257,13.224908318456706
304.0,7.587143825853504,11.60438964309932
305.0,8.95728401212272,12.133978217849185
306.0,8.636757725467403,13.432529303497045
307.0,8.000726532984597,13.877554974329167
308.0,6.934587813620071,13.89605734767025
309.0,9.29121863799283,10.703405017921147
310.0,7.388888888888889,8.232974910394265
311.0,7.041116231438812,9.2642089093702
312.0,6.793983614951356,7.411008704557092
313.0,5.881310803891449,8.970737327188939
314.0,5.020404505888377,7.044060419866872
315.0,5.309575012800819,7.48100358422939
316.0,4.940296979006656,7.457603686635944
317.0,6.851612903225806,8.179595494111624
318.0,6.825345622119816,7.014976958525345
319.0,7.743317972350231,5.15847414234511
320.0,6.981336405529954,4.79720942140297
321.0,5.982155657962109,4.599769585253456
322.0,6.272043010752688,5.372606246799795
323.0,7.299667178699437,7.4784178187403985
324.0,7.2398873527905785,10.566717869943677
325.0,7.80668202764977,10.098975934459805
326.0,7.765796210957501,11.90163850486431
327.0,7.732974910394265,14.495519713261647
328.0,7.704301075268818,13.5752688172043
329.0,6.258960573476703,10.257168458781361
330.0,6.923835125448028,8.459677419354838
331.0,7.037634408602151,9.131720430107528
332.0,6.34447004608295,8.203533026113671
333.0,5.313364055299539,5.849078341013825
334.0,5.4681515616999485,7.307091653865847
335.0,4.948233486943164,6.05363543266769
336.0,4.595084485407066,6.723502304147464
337.0,5.464362519201229,9.492165898617511
338.0,9.141679467485918,14.434254992319508
339.0,8.944335810464842,15.139346950637272
340.0,9.216343532472564,16.523526521913617
341.0,9.828601873763162,16.85808942583136
342.0,8.33933933933934,16.377022183473798
343.0,6.6625012108883075,16.70105589460428
344.0,7.019713261648746,17.073476702508962
345.0,7.015232974910394,15.293906810035843
346.0,9.078699436763952,13.65657962109575
347.0,10.83773681515617,13.656246799795186
348.0,11.988518703034831,13.234364318235286
349.0,10.27606938735971,10.394063879547751
350.0,8.16480120673669,8.206542948478432
351.0,8.247223952062662,8.552119400506497
352.0,8.167070757393336,11.13717081136436
353.0,6.298540706605222,11.395622119815666
354.0,7.527854582693292,10.832667690732208
355.0,7.938172043010753,12.311827956989248
356.0,7.1513056835637485,14.460522273425497
357.0,7.934753878302265,12.36551736067865
358.0,8.895244322663677,9.205608142704916
359.0,7.532299580686677,6.717947440528086
360.0,8.59321072224298,6.652880530299885
361.0,8.178581807614066,5.442313281022958
362.0,7.246415770609319,4.919354838709677
363.0,7.4631592421915,6.694802867383513
364.0,6.369124423963133,6.114874551971326
365.0,5.5815156169994875,6.001433691756272
366.0,5.963696876600102,7.471146953405018
367.0,6.919354838709677,8.262570404505889
368.0,7.005043522785458,7.8954429083461335
369.0,7.316589861751152,7.8733486943164355
370.0,6.560624679979519,9.934434203789042
371.0,6.61321044546851,9.588325652841782
372.0,6.563850486431131,6.944290834613415
373.0,7.611674347158218,6.174654377880184
374.0,5.217613927291346,10.27616487455197
375.0,5.927803379416282,10.811469534050179
376.0,7.214951356886841,10.948643113159243
377.0,6.555504352278546,11.266436251920123
378.0,8.447619047619048,11.959703020993343
379.0,8.333589349718382,10.59715821812596
380.0,6.53758320532514,8.507040450588837
381.0,5.942626728110599,6.799667178699437
382.0,5.915309779825909,5.166410650281618
383.0,5.814797747055811,9.343113159242192
384.0,5.358115719406042,9.681413210445468
385.0,5.397337429595495,7.573425499231951
386.0,6.6968766001024065,7.113773681515617
387.0,7.087557603686635,6.813927291346646
388.0,6.660778289810548,6.572964669738863
389.0,5.933614951356887,5.5583717357910905
390.0,5.6321300563236045,5.041730670762929
391.0,6.242293906810036,6.454787506400409
392.0,6.542549923195084,8.06994367639529
393.0,5.825294418842806,9.061034306195596
394.0,5.567127496159754,7.565591397849463
395.0,4.8337429595494115,6.49068100358423
396.0,5.173195084485407,4.882514080901178
397.0,4.540450588837686,4.115258576548899
398.0,4.882616487455197,4.621274961597543
399.0,4.793010752688172,4.320942140296979
400.0,5.440860215053764,4.095058883768561
401.0,12.308243727598565,3.712852022529442
402.0,13.245665019858567,4.310181148890826
403.0,9.578029642545772,4.406882689140753
404.0,6.44761697181052,4.288118763925215
405.0,6.370825895019443,4.145403467984114
406.0,7.098047356111872,4.169475927540445
407.0,8.214285714285714,5.375448028673835
408.0,7.75060890383471,6.283396299525332
409.0,8.451917355143161,6.5440278988666085
410.0,6.432819916690884,6.906422551583843
411.0,7.271069456553327,5.16378475249443
412.0,8.170928993509639,4.1826988278601185
413.0,7.022401433691757,4.872759856630824
414.0,6.138837685611879,6.014592933947773
415.0,5.5062467997951865,8.253712237583205
416.0,5.630593958013312,10.589272913466463
417.0,5.636533538146441,9.255657962109574
418.0,7.210291858678955,10.028366615463389
419.0,5.955785970302099,7.694674859190989
420.0,5.627598566308244,7.882539682539682
421.0,5.071044546850999,6.8773681515617
422.0,5.613287250384024,9.329825908858167
423.0,3.9997439836149513,10.557834101382488
424.0,5.521863799283154,9.821966205837175
425.0,5.987506400409627,8.578929851510498
426.0,5.913824884792627,8.689042498719918
427.0,5.854249871991808,8.471915002560163
428.0,5.810189452124936,7.4442908346134145
429.0,6.36131592421915,7.411546338965693
430.0,7.636303123399898,7.070916538658474
431.0,6.025064004096262,7.70089605734767
432.0,4.5963133640553,6.296236559139785
433.0,6.837173579109063,6.846543778801843
434.0,6.575883256528417,5.927112135176651
435.0,5.593394777265745,6.202150537634408
436.0,5.420148489503328,6.2353302611367125
437.0,4.884383000512033,7.88863287250384
438.0,5.580645161290322,11.882770097286226
439.0,8.25089605734767,12.124628776241678
440.0,9.984434203789043,15.448745519713261
441.0,8.707270865335381,16.00931899641577
442.0,7.436622105976944,15.413639445897509
443.0,6.2553438230857585,13.191433138207332
444.0,7.269248972474778,13.76910366587786
445.0,18.86326441649022,9.18255144545467
446.0,14.760933283513928,7.612333070397586
447.0,9.747898589834072,6.035847829396216
448.0,9.364937518163323,5.476654073428266
449.0,9.923956214278796,4.844957861086893
450.0,8.037392230940618,4.517509444928799
451.0,7.0336986756341595,3.807769059381962
452.0,7.712189839609195,4.5651748522716264
453.0,8.41732123828898,3.940242316048767
454.0,6.477925852119401,3.4454795809634517
455.0,7.227342549923195,3.2621095750128006
456.0,6.453200204813108,3.543599590373784
457.0,4.951152073732719,3.441065028161802
458.0,5.774081454726616,3.549328129973291
459.0,7.298331049943953,6.228069082907792
460.0,8.32392230940618,6.7340550227647
461.0,7.883735348251477,6.904213891310665
462.0,7.310326455487745,7.06751913203526
463.0,5.85573476702509,6.887096774193548
464.0,7.1603942652329735,6.041218637992831
465.0,6.06973886328725,5.28010752688172
466.0,5.582360471070149,5.380645161290323
467.0,6.724654377880184,5.628161802355351
468.0,6.286610343061955,5.345442908346134
469.0,5.631541218637993,6.037839221710189
470.0,5.571991807475679,5.2959805427547355
471.0,5.29805427547363,5.345929339477727
472.0,5.777240143369175,4.312339989759344
473.0,5.5083461341525854,4.418433179723502
474.0,6.3423963133640555,5.857654889912954
475.0,6.308294930875576,9.392985151049666
476.0,7.202073732718894,11.16136712749616
477.0,5.907936507936508,10.042601126472093
478.0,6.659037378392217,7.38120839733743
479.0,6.58399897593446,5.408346134152586
480.0,6.5976446492575525,4.195724526369688
481.0,6.5909882232462875,3.736431131592422
482.0,7.234562211981567,3.5048643113159246
483.0,5.92178699436764,3.2534562211981566
484.0,6.158832565284179,4.636661546338965
485.0,5.883358934971838,5.4768049155145935
486.0,7.758916981497626,6.042612197450907
487.0,7.779816913687881,6.844091556994782
488.0,6.810607381575123,7.415773377063699
489.0,7.388099389712293,9.002715157553867
490.0,7.043960089121379,12.171608474834281
491.0,6.579569892473119,13.86605222734255
492.0,7.962583551293228,14.553763440860216
493.0,6.066865252349123,16.010752688172044
494.0,7.966676353773128,15.75089605734767
495.0,7.058606994090865,16.435483870967744
496.0,7.099195970163711,16.344086021505376
497.0,6.75448028673835,15.456989247311828
498.0,7.600384024577573,16.918894009216586
499.0,5.835586277521761,14.377009728622632
500.0,6.775320020481311,11.372196620583717
501.0,6.258143396853074,12.45496395012524
502.0,7.344970315938058,8.80885678305033
503.0,6.491788793401696,7.176676215385893
504.0,6.302794038277909,6.807872157872158
505.0,5.667372441565989,7.968746626811143
506.0,6.5396825396825395,9.026318484383001
507.0,7.6079365079365076,6.9627752176139275
508.0,5.890885816692268,7.801280081925243
509.0,5.944546850998464,9.4284178187404
510.0,6.058243727598566,7.348566308243727
511.0,6.125140809011777,5.308934971838197
512.0,5.947875064004096,5.542908346134153
513.0,5.687199180747568,5.472171018945213
514.0,6.035304659498207,8.1489503328213
515.0,7.348745519713262,10.080747567844341
516.0,8.591833077316949,7.650819252432155
517.0,8.129697900665644,9.453097798259089
518.0,7.218074756784434,8.236405529953917
519.0,7.133512544802867,7.513440860215054
520.0,5.581310803891449,5.483358934971838
521.0,6.332770097286227,4.894905273937532
522.0,6.4271377368151565,6.340373783922171
523.0,6.577752176139273,5.992293906810035
524.0,6.7167434715821805,6.569175627240144
525.0,6.741781874039939,11.541730670762927
526.0,6.352073732718894,14.245775729646699
527.0,6.7262160778289815,13.232206861239119
528.0,6.222555043522785,9.563824884792627
529.0,7.215668202764977,7.061034306195597
530.0,5.664874551971327,6.682795698924731
531.0,6.84994879672299,5.020916538658474
532.0,6.264132104454685,4.595135688684076
533.0,5.516743471582181,7.481848438300051
534.0,5.250307219662059,7.8238095238095235
535.0,4.784229390681004,7.108499743983614
536.0,5.446338965693805,7.192345110087046
537.0,6.538709677419355,8.936917562724014
538.0,7.599956408020924,13.049776504615213
539.0,7.402576770318706,14.294601513956351
540.0,6.370054386183418,12.320060613608998
541.0,6.426066619615007,8.7684532458726
542.0,5.96648953100566,7.6805399869916
543.0,5.884920634920635,6.5060163850486425
544.0,4.655888376856119,6.825499231950845
545.0,3.891116231438812,5.7568356374807985
546.0,6.070558115719407,6.1481310803891445
547.0,7.325140809011776,6.829365079365079
548.0,5.882795698924731,6.154173067076293
549.0,6.454147465437789,6.240885816692268
550.0,7.763364055299538,5.794726062467998
551.0,6.2121863799283155,5.874551971326165
552.0,5.263133640552995,7.66241679467486
553.0,6.835714285714285,10.86530977982591
554.0,6.963440860215053,9.282130056323606
555.0,5.933333333333334,8.870455709165388
556.0,5.757091653865848,7.3640040962621605
557.0,5.564464925755248,6.376651305683563
558.0,6.143522785458269,7.655145929339477
559.0,5.409088581669227,8.091167434715821
560.0,7.49800307219662,12.025422427035329
561.0,8.777675371223758,13.631438812083973
562.0,7.2847414234511,14.397030209933437
563.0,6.8658730158730155,10.841833077316949
564.0,6.309728622631848,8.065181771633384
565.0,6.056298003072197,8.338146441372249
566.0,8.215873015873015,6.322299027137737
567.0,6.968151561699948,5.043317972350231
568.0,6.67741935483871,4.166666666666666
569.0,5.3256784434203785,4.0756784434203785
570.0,5.922247823860727,4.289631336405529
571.0,6.07716333845366,4.034152585765488
572.0,6.234767025089605,5.3719662058371735
573.0,6.440860215053763,4.939119303635433
574.0,8.13036354326677,5.61605222734255
575.0,7.712740620805137,10.182202709622064
576.0,7.768108661657049,10.836173039398846
577.0,7.202487510552027,7.744353800805413
578.0,7.307784973914006,10.767786219399124
579.0,7.369394279071699,7.806832177799921
580.0,6.033384536610343,5.591781874039938
581.0,6.174398361495136,12.234511008704557
582.0,5.226145500339049,29.67155865542962
583.0,6.049452678484936,28.86893344957861
584.0,5.410671039703297,20.90307911598234
585.0,5.223256666805054,13.12985497017755
586.0,7.729306264790135,8.94817121268734
587.0,6.4181259600614435,7.0331285202252944
588.0,6.430670762928827,6.448182283666155
589.0,7.349723225529677,6.283650240101853
590.0,6.793768422800681,9.55947744980003
591.0,6.846653796653797,8.566835499093564
592.0,6.796534783631558,7.20546076029947
593.0,7.408405640663705,5.694435449274159
594.0,8.92913743236324,6.176773086450505
595.0,9.3681529455723,9.379784392687618
596.0,6.693037046262853,10.188996138996139
597.0,6.6650669102282,7.351218499605596
598.0,6.1000193742129225,7.477913397268236
599.0,6.8199436763952885,6.477803379416283
600.0,6.364720942140297,4.871070148489503
601.0,6.846927803379416,4.39815668202765
602.0,6.398822324628776,4.161443932411674
603.0,7.9404505888376855,4.038607270865335
604.0,7.417076292882744,4.46799795186892
605.0,6.147721454173067,4.182181259600615
606.0,6.3121095750128005,3.7160266257040453
607.0,7.527931387608806,6.203609831029186
608.0,7.655990783410138,9.14436763952893
609.0,7.167127496159754,8.946338965693805
610.0,6.472043010752688,6.618381976446493
611.0,7.145519713261648,7.414029697900666
612.0,6.357859703020994,6.651664106502816
613.0,5.27931387608807,7.146031746031746
614.0,5.298847926267281,8.39441884280594
615.0,7.187096774193549,8.360471070148488
616.0,6.392831541218638,8.322708653353814
617.0,5.331746031746032,8.253046594982077
618.0,5.678725038402458,7.728776241679467
619.0,6.8958746765198375,10.558541952090339
620.0,8.880297809330067,7.799342660632984
621.0,7.843681930778704,6.405790121919154
622.0,7.121072916234207,6.656248875603714
623.0,6.384025961445316,6.986752189977997
624.0,6.174065540194572,7.600076804915515
625.0,6.3966205837173575,7.573783922171019
626.0,7.837480798771121,7.391039426523298
627.0,6.081822836661546,6.622939068100359
628.0,4.827803379416283,6.505325140809012
629.0,5.5019201228878645,7.113952892985151
630.0,5.0220174091141825,8.267997951868919
631.0,6.075883256528417,9.466820276497696
632.0,9.963568868407577,13.297926267281106
633.0,9.833293201035136,15.542852991240087
634.0,9.93538699990313,13.022885789014822
635.0,8.23382253220963,9.829991281604185
636.0,8.47399011915141,11.454422164099583
637.0,9.137799089411992,11.831492783105686
638.0,6.5537046262852705,8.7608454076196
639.0,7.389307510275253,9.61742987226858
640.0,6.816069525746945,7.495990921797373
641.0,6.852479207317917,5.588497253013381
642.0,6.864413722478239,5.013466461853558
643.0,5.343881208397337,5.161725550435227
644.0,5.664695340501792,5.464490527393753
645.0,6.18673835125448,4.064234511008705
646.0,6.522580645161289,3.7458269329237073
647.0,7.034152585765488,4.277624167946748
648.0,5.711469534050179,4.751408090117767
649.0,5.711443932411674,4.029416282642089
650.0,5.9919866871479766,3.35652841781874
651.0,4.046620583717358,3.271454173067076
652.0,5.82447516641065,3.1360983102918585
653.0,6.1678955453149005,3.5195596518177164
654.0,5.99994879672299,4.182539682539682
655.0,6.454147465437789,3.5676651305683564
656.0,6.574295954941117,9.101484895033282
657.0,5.715719406041988,10.355811571940604
658.0,6.252124935995903,10.060522273425498
659.0,6.46799795186892,9.951920122887865
660.0,7.538658474142345,9.086175115207373
661.0,8.294806327064393,6.8236988140213946
662.0,13.157285395995073,5.293416227287195
663.0,9.107316533122985,5.631923167407038
664.0,7.686428363847719,5.441102392715296
665.0,7.260776905938197,5.328974135425748
666.0,9.793906810035843,6.399641577060931
667.0,9.358422939068099,5.429211469534049
668.0,7.87489102005231,5.085537150053279
669.0,6.502857696406084,4.735420904775744
670.0,5.8786689915722175,4.217620846653105
671.0,6.011019083599728,3.7674125738641866
672.0,5.010207442465507,4.053496353496353
673.0,6.2162826420890935,3.3832821300563234
674.0,5.502227342549922,2.7558883768561184
675.0,5.963031233998976,3.654377880184332
676.0,5.70373783922171,3.9078341013824884
677.0,6.13205325140809,3.609216589861751
678.0,6.588428059395801,3.924679979518689
679.0,6.136610343061956,4.006118791602662
680.0,6.5924987199180745,3.6504608294930874
681.0,5.444546850998464,3.679621095750128
682.0,5.743113159242191,4.380875576036866
683.0,6.141269841269841,8.359344598054275
684.0,4.380312339989759,6.120225294418843
685.0,4.843830005120328,4.812800819252432
686.0,4.760624679979518,4.066794674859191
687.0,6.327977747332586,3.7657304770207998
688.0,6.081295581295581,3.988433594885208
689.0,7.226259669808057,3.996060115414954
690.0,6.451391483649548,4.450539018280954
691.0,7.5231867812512965,4.565771301255172
692.0,7.792882744495648,4.8928827444956475
693.0,6.574321556579621,4.394828469022017
694.0,4.9040962621607775,4.183077316948284
695.0,5.147747055811571,9.061981566820275
696.0,5.304608294930876,8.427496159754224
697.0,5.977572964669739,10.23794162826421
698.0,6.898463901689708,9.759984639016896
699.0,7.314363211137405,10.353849240946015
700.0,6.122056157540029,9.343744896970703
701.0,7.233173496076723,9.812284634865279
702.0,7.092841228325099,8.184816152558088
703.0,6.919743706840482,6.497374794148987
704.0,7.0240143369175625,6.585304659498208
705.0,5.5397849462365585,5.865232974910393
706.0,4.987967229902713,5.893548387096773
707.0,4.328520225294419,7.542498719918075
708.0,4.936661546338966,9.010496671786994
709.0,5.84805427547363,9.350409626216077
710.0,5.668202764976958,12.490168970814132
711.0,6.316180235535074,14.29078341013825
712.0,6.910880696364567,13.751075268817203
713.0,7.150332821300562,9.160931899641577
714.0,7.207885304659499,6.260752688172042
715.0,6.435944700460829,6.74710701484895
716.0,5.658832565284178,6.387890424987199
717.0,4.701024065540195,6.418868407578085
718.0,7.4938812083973385,9.641781874039937
719.0,8.526256210127178,8.195103859619987
720.0,7.254321141417915,9.668570875022487
721.0,6.371784226622935,10.337869666901923
722.0,6.736583357551099,10.495253317833964
723.0,7.067459625524141,8.996295373714728
724.0,8.298284690220175,11.000230414746543
725.0,7.10657962109575,13.279237071172552
726.0,6.5199540554379265,13.508903142774109
727.0,7.217119884861821,14.754233957459764
728.0,6.426890715600393,13.633542989994602
729.0,6.9737500172984035,11.699836011126333
730.0,7.391444901122321,8.282265675814063
731.0,7.3565284178187405,6.487301587301587
732.0,5.822043010752688,5.347798259088581
733.0,7.765412186379928,12.108934971838199
734.0,7.215591397849463,15.013696876600104
735.0,7.239068100358423,13.100486431131593
736.0,6.885663082437276,12.305171530977983
737.0,6.769713261648745,11.555555555555555
738.0,6.784203789042499,11.567025089605735
739.0,7.814592933947773,13.039784946236558
740.0,7.598108246495343,11.601409473990119
741.0,6.804840093549771,10.012827112827113
742.0,6.450359114875243,11.616628610176996
743.0,5.393689542076639,10.750608211898534
744.0,6.566327617940521,12.247475124894478
745.0,5.085304659498208,13.27122375832053
746.0,6.560112647209421,12.476779313876088
747.0,9.561418330773169,13.52467997951869
748.0,9.483666154633896,9.74173067076293
749.0,7.297491039426523,7.415770609318996
750.0,8.543548387096774,8.847132616487455
751.0,8.286559139784947,9.240322580645161
752.0,6.7252688172043005,11.052508960573476
753.0,7.563671274961598,11.253020993343576
754.0,5.776907322068612,11.833947772657451
755.0,5.873399897593446,12.329877112135176
756.0,6.036712749615975,11.464797747055812
757.0,6.501331285202253,9.868151561699948
758.0,7.086047107014849,10.243087557603687
759.0,7.549743983614952,14.788658474142345
760.0,7.66241679467486,16.206605222734254
761.0,7.658602150537634,15.57437275985663
762.0,8.72132616487455,15.68010752688172
763.0,9.85663082437276,15.10931899641577
764.0,7.439068100358423,15.318100358422939
765.0,6.878136200716845,11.119175627240143
766.0,5.739247311827957,7.442652329749103
767.0,18.587716749007072,5.409401336820691
768.0,12.544754431851205,5.124503535793858
769.0,9.100334205172915,4.704276857502664
770.0,7.957245955633052,4.609396493267461
771.0,7.085701830863121,4.01616778068391
772.0,5.383691756272402,3.868637992831541
773.0,5.843753200204812,5.066180235535074
774.0,7.648131080389145,4.694828469022017
775.0,7.460010240655402,6.918381976446492
776.0,7.931618023553508,5.2100870455709165
777.0,6.178494623655914,4.6390168970814125
778.0,5.568049155145929,5.014746543778802
779.0,5.830619559651817,5.9070148489503325
780.0,6.499641577060931,4.489452124935996
781.0,6.4702508960573475,4.166769073220686
782.0,8.812442396313363,3.996441372247824
783.0,9.277624859882923,4.4217530894950245
784.0,12.796966551805262,5.571987655858623
785.0,11.304611062675578,6.053424392134069
786.0,11.573622009105879,4.987552068197229
787.0,11.545771578029642,5.141625496464206
788.0,9.704155768671898,8.427831056863315
789.0,7.21766928218541,7.4746682166037
790.0,6.735057638283445,5.081613871936453
791.0,6.519713261648746,6.864695340501791
792.0,6.959677419354838,8.709677419354838
793.0,6.89336917562724,7.366487455197133
794.0,8.540322580645162,5.226702508960574
795.0,7.909498207885305,4.532258064516129
796.0,6.99137224782386,7.157603686635944
797.0,12.873834433511853,8.279591342494566
798.0,19.516218292024746,8.541677391677391
799.0,15.859666348376026,8.990021588408684
800.0,12.027951453757904,8.533989288827998
801.0,13.170299331589653,11.03458297006684
802.0,9.915528431657464,7.8597791339726815
803.0,7.19790758500436,6.85730892182505
804.0,6.809677419354839,6.4943164362519195
805.0,6.411740773031095,9.549710770678512
806.0,6.104615906228808,13.031575815446782
807.0,5.576949530175336,11.814175004497585
808.0,6.504872614550034,9.180384993288218
809.0,5.711883311883312,7.483280054247795
810.0,6.299078341013825,5.9779569892473114
811.0,7.0231950844854065,5.491218637992832
812.0,7.9596262160778295,5.717383512544803
813.0,7.144239631336406,7.699641577060932
814.0,5.35573476702509,7.154121863799283
815.0,6.352150537634408,7.9453405017921135
816.0,6.564516129032258,6.6388888888888875
817.0,6.39516129032258,8.181899641577061
818.0,7.238351254480287,7.119175627240143
819.0,6.686379928315413,6.24910394265233
820.0,5.934587813620071,5.308243727598566
821.0,6.971812596006144,6.2547363031234
822.0,7.429539447281382,6.013326690746045
823.0,7.843353953031372,6.82117947440528
824.0,7.20096525096525,6.390505251795575
825.0,8.691432446271156,5.703317142026819
826.0,9.322637383927706,10.994515713870552
827.0,9.352106253719157,11.32337429595494
828.0,9.474888252307608,12.449769585253456
829.0,8.44553424392134,10.946236559139784
830.0,6.684684684684685,8.517921146953405
831.0,6.193548387096774,5.850358422939069
832.0,14.358422939068099,4.474910394265233
833.0,11.433110529884722,4.420807904678872
834.0,8.479100067809744,4.038360941586748
835.0,6.910248958636055,4.287101617746779
836.0,6.118642144448595,5.123543128381838
837.0,5.51928010960269,4.734288205255947
838.0,4.944470046082949,4.42836661546339
839.0,5.593650793650793,4.0878392217101895
840.0,6.7366103430619555,3.842805939580133
841.0,7.368151561699948,4.335432667690732
842.0,7.323655913978495,4.435048643113159
843.0,6.858064516129032,4.688402457757297
844.0,6.597491039426523,4.548950332821301
845.0,4.47063492063492,5.180005120327701
846.0,5.233077316948284,4.131669226830517
847.0,5.582488479262672,4.057322068612391
848.0,8.296765890314276,6.510824649534326
849.0,9.078490472038858,6.381756410788668
850.0,9.860699409086505,7.428000581226388
851.0,8.654824179017726,7.3460234427976365
852.0,7.499903128935387,7.006345054732151
853.0,8.73600213116342,7.949990312893538
854.0,26.662355904291385,9.509493364332073
855.0,18.478349317058992,8.009154315605928
856.0,13.506829410055214,6.828562433401142
857.0,8.81900610287707,5.564319619158329
858.0,8.219538893732443,4.574226069387359
859.0,6.1178339629952525,4.118206224657838
860.0,6.950179211469534,6.856400409626216
861.0,7.409677419354839,6.3184331797235025
862.0,7.278673835125447,4.522401433691757
863.0,7.085125448028673,4.164874551971327
864.0,5.832078853046594,4.3349206349206355
865.0,6.273118279569893,4.207782898105479
866.0,7.153097798259089,3.500102406554019
867.0,5.426907322068612,3.440015360983103
868.0,5.268561187916027,3.1926779313876086
869.0,6.762852022529442,3.7802099334357395
870.0,5.652483358934971,4.416538658474142
871.0,5.033666154633897,4.555990783410138
872.0,5.832411674347158,3.9491295442908343
873.0,7.4636968766001015,3.905120327700973
874.0,7.611571940604199,3.754864311315924
875.0,7.717076292882744,3.789170506912442
876.0,7.226369687660011,3.1817716333845367
877.0,6.332027649769586,2.9993343573988733
878.0,6.95862775217614,2.411111111111111
879.0,5.246441372247824,3.1541986687147974
880.0,6.197593445980543,3.2926011264720945
881.0,5.188504864311316,3.491295442908346
882.0,5.116129032258064,4.029902713773682
883.0,6.549718381976446,4.163748079877112
884.0,5.437941628264209,4.212698412698413
885.0,5.641167434715822,4.130056323604711
886.0,6.766257040450588,3.5974398361495137
887.0,7.09142345110087,6.10563236047107
888.0,6.806839789097854,6.513922447793416
889.0,7.190606274477242,7.618520363681654
890.0,6.3390819390819395,8.41811834876351
891.0,7.482802618286489,7.7132450422773005
892.0,7.943705456608683,9.072751553396715
893.0,12.221634768408961,10.46619269038624
894.0,10.434742115387277,12.349135771716417
895.0,8.641206183141666,12.050015914532043
896.0,7.565405958954345,12.179181024342313
897.0,6.6584326261745606,9.334495786108688
898.0,6.551971326164875,7.374551971326165
899.0,6.076164874551971,6.543010752688172
900.0,6.246287762416794,7.492549923195084
901.0,6.314900153609831,7.880235535074245
902.0,7.378776241679467,10.170404505888378
903.0,6.376216077828981,10.34237071172555
904.0,7.139272913466462,10.293497183819763
905.0,8.892279376150345,12.499806257870773
906.0,7.65492105008234,15.476605637895961
907.0,8.739198876295651,13.447084180955148
908.0,8.769689043882593,13.653201588685459
909.0,8.41543156059285,14.726290806935967
910.0,7.952121476315025,13.193572604862927
911.0,7.686186186186186,10.67698343504795
912.0,5.735953695631114,11.459047757434853
913.0,8.620216991184732,8.93427298266008
914.0,11.29441538312506,6.921364913300398
915.0,18.327763247118085,5.995180664535503
916.0,17.173738254383416,7.391407536568827
917.0,23.616075753172527,6.386200716845877
918.0,34.5916400271239,6.254480286738351
919.0,25.862031386224935,5.8957182989441055
920.0,16.799452678484936,5.959507894991766
921.0,10.396590138525623,5.160757531725274
922.0,7.32161193451516,5.744623655913978
923.0,6.1135709442161055,6.548412698412698
924.0,6.13698260472454,5.550640040962621
925.0,7.3795442908346125,5.015463389656938
926.0,7.0316180235535075,5.001459293394777
927.0,7.401536098310292,4.817460317460317
928.0,6.827496159754224,4.484306195596518
929.0,6.00752688172043,4.660394265232975
930.0,7.251971326164874,4.364695340501791
931.0,6.859856630824373,3.7652329749103943
932.0,7.4063236047107015,4.186968766001024
933.0,6.330465949820788,4.192677931387609
934.0,6.163338453661034,3.9682795698924727
935.0,6.758192524321556,4.541935483870968
936.0,6.944956477214541,6.692114695340502
937.0,17.982334869431643,5.6802867383512545
938.0,21.920735251380414,5.185653395330815
939.0,22.99307371888017,5.184224547127773
940.0,17.361668119732634,4.379347089024508
941.0,12.15036811004553,4.616196842003293
942.0,10.406277244986923,9.487309890535697
943.0,40.10244115082824,8.071902547709
944.0,36.43204494817398,6.031919015789983
945.0,23.23331395912041,5.638549840162743
946.0,15.284946236559138,8.235154509348057
947.0,12.682795698924732,8.593383706286932
948.0,10.069626077690593,7.50215538118764
949.0,9.31393490264458,6.367117117117117
950.0,7.662791824082147,5.924149956408021
951.0,6.7952892985151045,4.368202764976958
952.0,6.375243215565796,4.2880440348182285
953.0,7.954198668714799,4.535151049667178
954.0,7.8380696364567335,5.1036098310291855
955.0,7.020020481310804,7.624833589349718
956.0,6.7255248335893505,6.171710189452124
957.0,6.50478750640041,6.241321044546851
958.0,6.136507936507936,5.475883256528418
959.0,7.946492575524833,4.840245775729647
960.0,8.690450588837685,4.4810547875064
961.0,8.299078341013825,5.118663594470046
962.0,8.163367514980418,5.499501805953418
963.0,7.771699118473311,10.300954179986437
964.0,8.503681100455294,9.368667054150926
965.0,9.19090865058607,8.027075462559333
966.0,8.568201381104608,6.649354423547972
967.0,6.5210957501280085,6.240399385560675
968.0,5.3100102406554015,4.828392217101895
969.0,4.799718381976446,5.434357398873527
970.0,5.79636456733231,7.255709165386584
971.0,6.2682795698924725,8.976292882744495
972.0,5.282437275985663,9.655709165386586
973.0,5.684587813620071,8.050179211469533
974.0,6.295033282130056,7.436200716845878
975.0,5.76041986687148,8.992293906810035
976.0,6.226088069636457,9.84605734767025
977.0,6.025678443420379,10.966487455197132
978.0,6.729237071172555,11.559856630824372
979.0,6.480286738351254,10.315412186379927
980.0,8.43100358422939,13.79121863799283
981.0,9.311827956989248,15.941756272401433
982.0,10.393587135522619,14.082025573961058
983.0,13.622420807904678,15.56475830669379
984.0,10.882446963092125,14.59062288094546
985.0,7.426886563983338,12.181512157318608
986.0,7.266937905647584,9.209125254286544
987.0,6.433333333333334,10.615412186379928
988.0,6.29710701484895,9.370788530465951
989.0,7.0611879160266255,8.79784946236559
990.0,8.23758320532514,6.617562724014338
991.0,7.328827444956477,7.589426523297491
992.0,7.420071684587814,10.561085509472605
993.0,6.4511119414345215,10.627186172347463
994.0,8.304741838612806,10.855707781514234
995.0,9.049772352998161,8.163516973194392
996.0,8.105531337789403,12.604159920288954
997.0,7.789119995571609,12.650876683134747
998.0,5.9143881208397335,12.731080389144903
999.0,9.160112647209422,13.155862775217614
1000.0,11.355218582637937,14.524991350797801
1001.0,8.157448000996387,12.468588865363058
1002.0,8.337927789540693,14.493613429097298
1003.0,7.81919430951689,10.875378143120077
1004.0,7.897052351891061,16.001309143244626
1005.0,7.67452636968766,15.2621095750128
1006.0,6.924628776241679,14.4563236047107
1007.0,5.566922683051715,13.850281618023555
1008.0,9.33399897593446,11.550844854070661
1009.0,18.38563748079877,8.219866871479775
1010.0,19.119790066564256,6.685202252944189
1011.0,19.616068141874592,5.4814173620625235
1012.0,42.31146469049695,5.880340017436791
1013.0,46.2950692628112,6.720187929865348
1014.0,32.563038845296916,6.397849462365591
1015.0,24.053472827666376,5.118279569892472
1016.0,14.935193257773903,4.492637799089412
1017.0,13.560786593044657,4.492734670154025
1018.0,9.586844909425555,4.704252639736511
