time,emg_right_hand,emg_left_hand
0.0,5.395348837209302,91.06976744186046
1.0,7.503875968992247,110.89922480620154
2.0,6.551495016611295,85.48172757475083
3.0,6.84031007751938,65.50387596899225
4.0,6.824420390811989,65.78451755796092
5.0,7.3701996927803375,58.58618225985067
6.0,8.06019361983353,54.12317365055549
7.0,6.30768406387311,53.48033436930661
8.0,5.934796416874253,53.43373386900732
9.0,6.187828315964008,46.22301132774483
10.0,6.8876304441964145,72.68355939159005
11.0,7.539839228099708,65.24838134620764
12.0,7.751102409748778,94.65913690966296
13.0,6.856668435401533,58.719812357270506
14.0,7.156521621694622,44.85898451964908
15.0,7.018306144480371,49.95848143220474
16.0,7.376744970214679,62.95884925460063
17.0,8.071629013525158,182.84117577937403
18.0,7.576736322582388,133.61246207774622
19.0,8.350637746544649,117.23881552428017
20.0,7.952961454649376,201.97395371570167
21.0,11.149305183438717,247.3959739934984
22.0,10.668738613224734,170.7406137248598
23.0,11.464618332283418,143.0673866201742
24.0,9.198899027892862,84.69564865083866
25.0,9.233679500014375,255.33880421324844
26.0,8.494354583260955,352.9916076580121
27.0,7.732495049641409,599.9382537271949
28.0,7.435090955190493,382.30390263070996
29.0,6.89803702905454,235.13943773399797
30.0,7.0607696666010025,123.9956021235274
31.0,7.075003942623287,75.1213944601133
32.0,7.1961309142616665,37.647701123887245
33.0,6.9012967527596185,192.40929875325975
34.0,6.972636016146893,586.4825492087307
35.0,7.629871753652699,414.43046475904686
36.0,7.757171435716071,233.98342442753545
37.0,7.78901432675242,128.24344500759335
38.0,6.330485060289463,71.20348379777872
39.0,6.296203841901242,36.08968531331439
40.0,7.721548854112482,30.343077929761186
41.0,10.335643144235535,262.4292283872362
42.0,13.447466396215777,337.6825059923517
43.0,15.382452756046156,240.04576144036008
44.0,13.855410281141715,183.47947701211018
45.0,17.238381023827387,227.07691208516414
46.0,12.394455756796344,441.2687636194763
47.0,10.79577037116422,362.96006144393243
48.0,8.418211695781089,437.72493123280816
49.0,10.231432858214554,419.7149644553995
50.0,9.410066802414889,548.4541849748151
51.0,12.33454792269496,468.1663272961098
52.0,10.857142857142858,247.28910799128352
53.0,10.13885614260708,236.20914157110707
54.0,9.904368949380203,226.6341942628514
55.0,9.512949665987925,129.00989533097558
56.0,8.036744900510843,72.98124173900618
57.0,8.080120030007501,327.44951237809454
58.0,7.574568642160541,404.1197299324831
59.0,7.411065266316579,588.4957239309828
60.0,7.039366091522881,511.66121530382594
61.0,6.566391597899475,491.06901725431356
62.0,8.165362769263744,426.10202550637655
63.0,8.42064087450434,371.33833458364586
64.0,8.393241167434716,216.43017897331475
65.0,9.117100703747365,120.83999571321402
66.0,9.817811595756083,118.49206944593291
67.0,32.25812463568854,155.99052724853686
68.0,45.18805920992443,172.74275406830802
69.0,36.7071828932843,144.6961278647188
70.0,28.12290877597448,198.51610594286203
71.0,26.469944141087538,424.6403447551784
72.0,15.575412668498135,459.95038480874575
73.0,11.544431229758658,386.52822351929444
74.0,10.656311638885331,316.0146744003074
75.0,9.363039540372899,224.46720216639528
76.0,11.17024256064016,121.86017933054691
77.0,9.970528346372307,103.16818490336868
78.0,9.435358839709927,75.28853641981924
79.0,7.287821955488871,82.90233272603865
80.0,6.862965741435358,56.06155110206122
81.0,6.2376722229337815,83.49201716805507
82.0,6.423828430975339,73.61336649493384
83.0,8.037531334053025,50.457622768061356
84.0,8.770453589007008,38.04839127900442
85.0,7.893291310632536,68.5504629206082
86.0,8.386794019933554,55.61330421891187
87.0,6.985889329475225,49.25037330761261
88.0,6.225520665880755,55.83877576536992
89.0,8.02457757296467,47.26801075268817
90.0,8.170353302611367,31.36021505376344
91.0,7.814439324116744,20.248847926267278
92.0,7.5892473118279575,24.119047619047617
93.0,6.481643625192012,24.132872503840247
94.0,7.223924731182796,32.94086021505376
95.0,6.399029635457644,48.973183844741676
96.0,7.862182008916863,42.73826383425124
97.0,8.339250049714252,29.776670614986905
98.0,6.786368496439307,26.953235461103283
99.0,8.557091296410272,32.54989497843504
100.0,8.064540927512768,23.58375944830485
101.0,9.42172758413404,24.19510553060404
102.0,7.174647320366677,28.938743832299537
103.0,8.209443475851542,33.053473298638245
104.0,6.675989554880008,50.83843957505056
105.0,6.48164654404019,55.29832980893307
106.0,6.655457418361559,54.774656643254886
107.0,6.544505899994162,57.08999026760175
108.0,5.655462646149342,49.289590690355524
109.0,5.410974694893236,36.24249355021682
110.0,7.56813157993331,27.563410887565098
111.0,7.775804578322281,37.67037578209884
112.0,6.341472998911748,92.18883727900617
113.0,6.1254965309271565,82.75256183383826
114.0,5.862118839814483,52.22128485082943
115.0,6.597726086573908,40.975081749531455
116.0,8.235883883862952,32.965446936647055
117.0,6.594114556513692,27.678558141277477
118.0,6.802250039861882,24.789003696917263
119.0,7.528190322842034,24.27923827646807
120.0,6.816968789235636,25.927749968851096
121.0,7.079152061534547,36.44774595216748
122.0,10.464307213562972,43.177790026774986
123.0,11.250259428968741,34.54150122896578
124.0,9.546844899378154,29.136997664050156
125.0,9.483099869043915,30.24867192407858
126.0,8.271664606046981,26.125604136225693
127.0,8.684987448952828,27.60619684537859
128.0,8.869806301749652,29.804316061593795
129.0,8.135139185493237,33.125210745195005
130.0,7.751395601513618,28.408901877037202
131.0,8.247049567269865,32.946386422389565
132.0,7.747180697613428,26.820351429320745
133.0,7.793713236671538,26.11985313401521
134.0,8.246187853583605,26.376212955677943
135.0,7.842774718069762,31.72269678917987
136.0,7.368944588063393,25.85112959424525
137.0,7.935669021785063,37.2053936829155
138.0,7.503979653449948,39.1115949719137
139.0,7.590306113113644,35.44879512561067
140.0,6.604201050262565,24.41055019852524
141.0,7.2415969846120065,25.164755823102112
142.0,6.593327338803341,20.869896219699523
143.0,6.942555543066951,25.019227454947362
144.0,6.8124039938556065,24.521658986175115
145.0,6.604992319508448,25.86566820276498
146.0,7.254561462665317,27.170540631673596
147.0,6.651474279719755,26.4389569517815
148.0,6.132956801918249,32.60196695515342
149.0,6.343029681636437,28.7888822379811
150.0,8.179628530826086,30.31466141796773
151.0,7.8647945958615075,26.595568317166396
152.0,7.628403442323995,26.5130683367706
153.0,7.499357766270836,46.32281119060253
154.0,6.956730646076153,43.69216328472362
155.0,6.710353633704593,34.815865464624
156.0,5.936758623453773,31.352614460235266
157.0,6.622488374706917,51.10917973395788
158.0,7.776944236059014,123.53720573000393
159.0,7.493873468367092,83.5240417247169
160.0,6.197013539099061,55.386828850069655
161.0,7.9592576715607475,38.708891508591435
162.0,6.847908405672847,33.9512199478441
163.0,13.399242667809808,35.03004322509199
164.0,12.53720573000393,29.994016361233165
165.0,10.365770013932053,28.985674990176115
166.0,11.413942771407138,28.718268852927515
167.0,9.238845425642126,31.17057835887543
168.0,7.735476726324437,28.40824491837245
169.0,6.438576194571291,35.0794449483451
170.0,6.399534378368111,32.09436723292321
171.0,6.481087519266577,37.80899907032507
172.0,6.211741916315315,47.35304024176776
173.0,5.642200619841372,37.51793436163919
174.0,6.662563724554832,26.968644600174436
175.0,6.543949053465457,28.008948578608067
176.0,5.657820988348131,23.878532089468358
177.0,5.793285516501076,24.90882093345636
178.0,6.187752120957068,26.007124864839902
179.0,6.709926414530461,26.989006964284624
180.0,7.61262449758781,26.935632514400375
181.0,7.660766933893751,26.077647286386053
182.0,7.433659285901615,28.99845640852722
183.0,7.0276834888164545,28.734588438050277
184.0,6.641244239631336,27.59900153609831
185.0,6.809523809523809,29.819508448540706
186.0,6.126877973848862,25.25596643063205
187.0,6.056624783373543,26.495289327558368
188.0,7.134606822437316,27.264738222883246
189.0,6.083432443476722,29.917699372578337
190.0,6.657461229418852,22.418834325306065
191.0,6.594662951452149,19.092816061158146
192.0,7.095727503304397,25.195355981852604
193.0,6.930798771121351,24.729032258064514
194.0,7.80070642660665,24.973525524238198
195.0,6.167845532811773,24.280579966420174
196.0,10.204890508341371,52.3177388423761
197.0,11.375674057887293,50.42999077295456
198.0,9.64559432541062,46.51146236036361
199.0,10.96233204642624,32.32774918468293
200.0,9.007279694488082,33.28676245716481
201.0,7.952180553849264,95.51498588932948
202.0,6.621251567247212,93.05725691004633
203.0,8.762622711426985,92.88001094350241
204.0,9.118370620529696,98.20069564429434
205.0,8.747741377853174,76.27699912783075
206.0,9.764423684318292,49.61891431045915
207.0,8.381031669067092,34.460125919981735
208.0,10.408228229665296,25.818299991776286
209.0,9.846174020052857,27.82367435868616
210.0,8.527466763501382,42.86766498646907
211.0,7.020422554043764,63.69148619237362
212.0,6.254809011821435,53.596689979249035
213.0,6.684591879677236,47.41726895138419
214.0,7.657530236217591,81.79036832378827
215.0,8.213053263315828,76.47636909227307
216.0,8.024006001500375,64.11477869467367
217.0,55.388168470689095,115.40985246311578
218.0,67.34262136962812,332.65166291572893
219.0,43.85435644625442,359.87946986746687
220.0,30.716750616225482,370.5946486621655
221.0,21.379721553765062,225.17425947395938
222.0,12.562436063561343,165.1865921025711
223.0,8.67601315913394,139.09904748914502
224.0,7.75421429003117,111.89693376781003
225.0,8.06695948614965,89.31912357246739
226.0,7.504654909371942,61.85418305795961
227.0,5.8761083999222805,68.9192145597375
228.0,6.349166559932666,42.054873474466184
229.0,7.15076939966699,32.05641044407443
230.0,6.683567233271733,51.97195030464934
231.0,6.5692423105776445,46.19596728450405
232.0,7.041761659927177,33.71517757488152
233.0,6.753281264567013,47.67185202223901
234.0,7.144278970439474,33.3487149226331
235.0,7.403056273650293,29.988864223895696
236.0,7.44225394327676,42.49967404743172
237.0,7.18863287250384,31.408294930875574
238.0,8.251152073732719,34.80921658986175
239.0,8.157450076804913,54.182642089093704
240.0,7.208650376879934,39.77022291287108
241.0,6.5932268781481085,35.337069981781156
242.0,6.969462901439645,38.73427999857107
243.0,8.681563247954845,77.76276211910121
244.0,43.36476976386954,310.16650591219235
245.0,37.26401892680963,213.26527573451804
246.0,25.892690705143817,141.69916342722044
247.0,18.247420621389114,82.21171689026153
248.0,12.3555581245644,63.078854960810204
249.0,11.442702435982767,36.56779171432073
250.0,9.204241827007273,35.885742341508724
251.0,11.539343855602798,37.47625451659082
252.0,9.348396966203856,27.529601912673293
253.0,8.545953007098781,30.455595606218626
254.0,7.469110031704949,27.015460311070797
255.0,8.795695300923741,34.829935706923244
256.0,8.610125963546636,30.176872615366385
257.0,8.931407067794822,31.6621690265772
258.0,8.315585516588206,29.71204438740347
259.0,8.218374977019515,25.401262162230452
260.0,9.268191525233224,24.906271777003482
261.0,9.920819229197543,24.865372876320123
262.0,9.21156168833149,32.858185670110906
263.0,7.993782417729868,31.600630993985433
264.0,8.07313039061159,32.620142404939216
265.0,8.049668863208833,83.84743398393152
266.0,9.748765414350103,103.27818060786973
267.0,8.080010412802757,82.57377121442222
268.0,8.659431404414295,126.26005267946698
269.0,13.80066468945396,138.3206677500861
270.0,16.170648181525902,319.5348983349734
271.0,41.401528141775714,237.68155269336813
272.0,35.716526534230965,356.02369423524715
273.0,29.040737457091545,243.18756961967762
274.0,23.18653527018118,173.8289686057878
275.0,19.76400496227953,102.44328614621189
276.0,14.008994595021893,72.49363180199548
277.0,11.496659704995935,49.70722645818249
278.0,12.607776857106263,74.03909710005898
279.0,38.773309355213364,197.48836218200893
280.0,128.83826758083248,202.42522947810124
281.0,95.11189539545164,215.0883031733543
282.0,75.25976650957163,190.3837989985301
283.0,43.339944698718234,146.63928813213755
284.0,29.504761403765574,123.82556518920671
285.0,28.71238454212856,239.6145491076602
286.0,19.207883852496224,189.66683395587572
287.0,13.095868479314952,179.08140754700867
288.0,9.373203056861776,280.50959778272096
289.0,8.130712556187827,213.65689941649177
290.0,8.179411577633083,154.48205953927507
291.0,7.385685707141071,104.37763012181617
292.0,8.103365126996035,82.02752473832743
293.0,7.484478262422748,75.3136855642482
294.0,6.0222734254992325,69.97542242703534
295.0,7.138659664916229,84.50260779480584
296.0,7.2210195405994355,94.11190297574393
297.0,7.61004144764414,94.64291900501257
298.0,7.946725792946493,99.07529974828202
299.0,7.379348321400908,89.74463912145282
300.0,7.2050530054116315,87.97209450446235
301.0,6.9381639835045865,88.55478765161673
302.0,7.94880863072911,82.15235951845104
303.0,9.396063301539671,80.26742399885686
304.0,8.502232701032401,59.15246668810059
305.0,7.74999106919587,43.233147572607436
306.0,8.976386953881327,36.01621834029936
307.0,9.050762690672668,33.8461758296717
308.0,9.73968579252827,46.80315984919575
309.0,14.679899068843865,56.96991103176491
310.0,12.316318626695,52.416625933486856
311.0,9.464235832477282,53.056024894725425
312.0,8.726357547575047,62.56603088054243
313.0,7.732179560569584,71.32274793437035
314.0,6.922831753234476,60.20236156600126
315.0,8.72173095538693,40.86549686202038
316.0,7.541285582719722,38.447001994401035
317.0,7.21812073227366,50.40472487459844
318.0,5.827392388166728,45.396697606457366
319.0,6.924917204910983,54.489701693716114
320.0,7.1640715056812985,35.69753901890107
321.0,8.48079615722746,34.48800074583106
322.0,8.725769421449439,32.56995686203781
323.0,8.099631179571897,45.79511293328559
324.0,6.084003143643054,55.43974297145714
325.0,6.873826906203902,45.194271564406776
326.0,7.1147168325182335,35.502665736120434
327.0,6.006631448802967,29.050354051927613
328.0,7.289369380672694,26.56925947514753
329.0,6.563271479890878,26.98240239502384
330.0,9.241060265066267,24.918086664523273
331.0,7.646643803808095,34.048137034258566
332.0,7.103425682204524,27.267137341826746
333.0,7.850305346371435,31.169345472256566
334.0,7.371005207747929,25.151493012625977
335.0,7.2115394702334115,32.14970963995354
336.0,6.33326589487093,26.341905511221007
337.0,6.563901689708141,22.572043010752687
338.0,7.752470260422248,23.184460400814487
339.0,6.18652698889008,37.46627013896331
340.0,6.539683636065811,100.21202964068543
341.0,7.8635630161895875,71.33049638716298
342.0,8.688693950491107,45.15526355456459
343.0,6.79324491401596,50.72284665242965
344.0,6.237698797521681,53.33826575110676
345.0,6.362358446754546,66.04506483763798
346.0,6.684635444575429,42.32706390883435
347.0,5.8999214089236585,29.231657914478617
348.0,6.167121919852786,27.055359135951235
349.0,6.377259384532545,31.400522778778317
350.0,11.78425181208194,29.910322833321572
351.0,10.029990729389663,30.52044559484819
352.0,9.341992292498212,29.069189771310423
353.0,7.283749508805773,31.813846318722536
354.0,7.22273425499232,30.398617511520733
355.0,6.055299539170507,27.19969278033794
356.0,6.860158855044771,36.22878498370237
357.0,7.617867445955566,34.6823648420816
358.0,9.143419130043835,30.305852159904084
359.0,8.933621471569982,51.542943227095975
360.0,12.627717033788063,49.19697084549883
361.0,12.564133890615512,43.75969706712392
362.0,9.608731364025674,57.89281170466833
363.0,8.348622172964843,64.89219282172459
364.0,7.743328340795999,41.976854100284655
365.0,6.890802883647741,46.4827470587159
366.0,14.859111119243225,70.8289119318157
367.0,33.06488207417708,76.55725691004632
368.0,32.88216566336706,78.49538691293031
369.0,22.2360851536926,56.29020408412207
370.0,14.424494189749526,68.23137360995301
371.0,11.38390608104988,50.83342874046038
372.0,10.149466809211013,43.34315024749218
373.0,8.302113420341147,30.508317846012023
374.0,8.070795573457826,28.720364760179592
375.0,7.209977145854408,26.85759244689221
376.0,7.345981451016856,25.997117686928856
377.0,7.244344365312108,39.21119606200251
378.0,7.277894148861891,68.43192291579388
379.0,7.750314201927105,56.807359307359306
380.0,8.208874458874458,40.483172741237254
381.0,8.517665130568357,38.718894009216584
382.0,7.4276909819789445,32.01639129294519
383.0,7.4546289011277205,25.520100408377353
384.0,7.1321981192162145,30.822449514817727
385.0,7.28042942791447,26.183078435114002
386.0,6.988525005815913,30.873029232917983
387.0,6.611249502271038,27.586228002993778
388.0,7.716905707263053,35.56589321546414
389.0,7.159396992105169,77.28097965257865
390.0,9.304754760118602,138.86479590280845
391.0,9.356517700853784,147.8500291449169
392.0,9.114778694673667,132.3228551040199
393.0,12.735277024831122,109.1445866693154
394.0,12.602043367984855,76.8421033829886
395.0,12.569963919551316,233.41024541849748
396.0,10.779730646947451,134.09530954167113
397.0,9.257082127674774,180.65530668381382
398.0,9.370092523130783,185.27004965527095
399.0,10.21346408030579,373.78517843746647
400.0,16.08791483585182,332.0005001250313
401.0,13.551038456478231,243.28997319016165
402.0,10.122378670372376,346.6121147407536
403.0,8.061680529413316,244.28295338009352
404.0,6.315227920062055,320.38180625295695
405.0,10.955617032227646,279.27231633692395
406.0,14.459465515729581,197.30048583574464
407.0,13.962938786644713,141.65581817532305
408.0,15.104875244785223,231.8526652767088
409.0,11.48446040081449,260.3217411495731
410.0,10.648912228057014,236.89947486871716
411.0,8.939234808702174,160.2145536384096
412.0,6.762726395884685,99.41878326724539
413.0,5.893896819152523,58.72942713030174
414.0,5.414601037018836,43.04647329079657
415.0,6.473626246282825,28.12496939565902
416.0,6.715222359596867,201.33751077142108
417.0,6.683264021580308,147.30354801243863
418.0,7.090863110139271,154.59455349266523
419.0,8.073554657273757,195.20401235880715
420.0,7.334894540866765,137.89383828377112
421.0,7.647103334275127,86.72015731205528
422.0,7.720323987395329,51.109732097262516
423.0,6.243519764958661,28.79225607795677
424.0,7.180488850435605,38.9700750971715
425.0,8.032479984107525,47.91151916899085
426.0,8.809590115298858,47.22212974846499
427.0,9.121478583931697,45.725167006037225
428.0,8.070839138356018,41.17656199764227
429.0,7.000857357196441,34.47096617359915
430.0,7.00893690321535,30.444401169978907
431.0,7.191640244555913,27.519274853556595
432.0,6.615021351156605,23.86140393983513
433.0,7.103209600309485,26.529396286353816
434.0,6.878906137684247,24.69939523208328
435.0,7.245492557808442,47.95093024127112
436.0,8.363931575228303,42.82055139220345
437.0,6.651802402612056,37.96421369358811
438.0,7.685292007195654,34.91066890891237
439.0,7.059011070474302,29.231494957996702
440.0,6.138709012064547,28.985862873700686
441.0,6.296857810429801,26.511864741605102
442.0,8.42148864742318,32.148928347069344
443.0,7.732755488523699,50.548050775760146
444.0,8.265748318612754,33.371822398108236
445.0,7.9958954024220334,23.943582324152466
446.0,7.228296882583015,24.60650885717945
447.0,7.179789851644096,30.553066881703003
448.0,9.17688095804439,23.845631072402245
449.0,9.473828343845543,27.854516765079772
450.0,9.535635651073047,29.710499924632725
451.0,7.848462986826846,34.50159142573099
452.0,12.090219418966239,47.69070926268152
453.0,10.320053445417102,40.29959319098067
454.0,10.692383026070107,58.9414766583632
455.0,9.129359866098929,134.10423511801295
456.0,7.864050507400369,132.86761716561546
457.0,8.570124238376668,91.43424880610397
458.0,8.06602521710567,82.24418473956469
459.0,7.768196404501822,53.145348183735834
460.0,6.89470799755688,39.65589132474756
461.0,7.298127667805453,35.33688125864219
462.0,8.853945629264459,38.276229771728644
463.0,7.659307684063873,35.700710892008715
464.0,5.671181297066426,29.936645311153573
465.0,7.014162077104642,25.11117979843393
466.0,7.33241237138553,26.301624622183418
467.0,7.738402806276481,42.711872218925805
468.0,7.125495659629193,53.93513883697405
469.0,6.1803342821768155,39.35727006664558
470.0,7.233024283945551,35.4071296569787
471.0,7.118298302798696,37.80367914278221
472.0,7.646015510846353,33.59584878798097
473.0,6.698617511520737,34.25284178187404
474.0,7.43238919485969,38.265981042298904
475.0,6.7653497433591845,30.661792364467424
476.0,7.214088082125061,33.564383125398074
477.0,6.129567082537185,27.74663088681578
478.0,7.268412573526656,23.037428346633696
479.0,7.079131542467498,21.785039901090258
480.0,9.731962084597804,28.605653591098125
481.0,11.044284546746443,28.87275499188386
482.0,13.205134449988803,28.20599847261467
483.0,10.732501940816213,40.44065284613836
484.0,8.325495659629192,43.672018004501126
485.0,7.566127246097238,46.199757082127675
486.0,7.678305290608366,46.98250991319259
487.0,7.012749615975421,65.76559139784946
488.0,6.3715821812596,47.89047619047619
489.0,9.955539777801594,133.965380630872
490.0,11.358893294752258,127.64701889758155
491.0,10.508805772871789,149.78405315614617
492.0,9.192655306683815,139.9217482942164
493.0,12.928732183045762,176.2205551387847
494.0,9.8872932518844,137.933090415461
495.0,9.496481263172935,117.7131068481406
496.0,7.77412210195406,131.77740863787375
497.0,7.467399317361808,132.42478152005532
498.0,6.813492334122492,86.66516304400776
499.0,7.59014916066679,62.14457023346746
500.0,8.665811907522334,52.23733888017459
501.0,8.374827148345528,102.87041094689256
502.0,6.664511744819322,82.38484588679637
503.0,7.884675227248371,54.9006340870932
504.0,5.87257017176372,45.535088236344805
505.0,12.131196760229018,104.91994427178223
506.0,14.857841083647534,187.1181902618512
507.0,14.475387515710096,206.84749758868287
508.0,11.521273175436715,144.62254849426643
509.0,9.393044689743864,109.59559532740329
510.0,7.1692565998642515,68.63842746400886
511.0,8.039107337810062,66.88046096890076
512.0,7.7046535152952,95.48976965495729
513.0,7.683195189041163,96.10229560874538
514.0,6.966878914850663,65.0762790871934
515.0,6.15772410001455,60.651855472578944
516.0,7.1800092880362945,58.47379702068374
517.0,16.695191655056618,73.79385917908048
518.0,18.966241560390095,108.43135783945986
519.0,14.9152288072018,185.7276819204801
520.0,14.177044261065266,141.6256564141035
521.0,13.005251312828207,126.86346586646661
522.0,11.557782302718536,157.65573536241203
523.0,10.808523559461293,160.93701996927803
524.0,10.128567856249777,121.50826992462402
525.0,8.248454970885579,78.83928124888365
526.0,7.536080448683599,51.526917443646624
527.0,6.976565569963919,45.06530203979566
528.0,5.863495490597388,28.669560247204657
529.0,6.194992127822896,30.10302575643911
530.0,6.051252360128359,35.23048619297681
531.0,5.91156194972088,39.46082949308756
532.0,6.991495260574726,33.85407066052227
533.0,7.6356374807987715,26.02058371735791
534.0,6.820422614364393,28.775549810797646
535.0,7.1978457157843465,31.532168146566256
536.0,7.880028848675584,31.696575624742422
537.0,7.656988310666517,28.128625753999472
538.0,6.856356075081488,23.50249147652767
539.0,7.226555767861826,29.19572140421865
540.0,7.928178037540744,36.59171630886816
541.0,6.297422352103705,37.36459855381963
542.0,6.616837136113297,45.110486680903676
543.0,7.266691672918229,67.75452791769371
544.0,8.365680705890759,52.449844604008135
545.0,8.89341978351731,38.57950201836173
546.0,9.629121566105812,53.79896759904262
547.0,8.647126067231094,46.27621191012039
548.0,7.595679843305773,36.7342214473479
549.0,6.779790766506958,37.65244098481066
550.0,7.127329741843126,33.829971430139764
551.0,7.5535116357486585,26.039316013672405
552.0,7.745649827090919,35.69976553371792
553.0,46.265429162168594,117.00605900604072
554.0,42.789627023480605,96.43651644618473
555.0,31.325510471694578,73.6782660822
556.0,21.96654459782193,52.73575353768755
557.0,13.448040276619677,87.0947459861481
558.0,9.426653984924801,99.87493659129069
559.0,9.503054335012324,71.61435001607545
560.0,9.610974172114457,50.97192155181652
561.0,9.188154181402494,44.60440110027507
562.0,7.794162826420891,36.51689708141321
563.0,7.535086733355813,33.83601213892323
564.0,9.379217713836123,25.286823273762693
565.0,9.28639241691956,24.606807538121462
566.0,7.903948896631823,29.59487842343861
567.0,7.9064541396673205,28.19268981008318
568.0,8.444755439731011,27.859075221767114
569.0,8.535831693114917,27.88327482567506
570.0,7.621518184424154,26.910091198757875
571.0,6.616826680537731,29.49767232748954
572.0,7.126332105674503,29.626305531086604
573.0,9.993630811884156,24.836087070548125
574.0,8.616743471582181,26.854838709677416
575.0,6.570660522273426,34.1589861751152
576.0,6.659754224270353,28.431643625192013
577.0,9.105222734254992,28.34869431643625
578.0,7.506874976583868,33.20829118429433
579.0,6.9467048817953625,28.790547375519836
580.0,7.603799033382039,26.650181709190363
581.0,7.208197519763216,25.85734891911131
582.0,14.738596670073441,36.946187766453804
583.0,11.977162409069166,42.924894115514945
584.0,9.082601660868178,41.045059174201214
585.0,7.947280374100494,40.021349414008554
586.0,9.289165496949149,39.388394136861734
587.0,12.608948839997455,165.3179780136672
588.0,24.34479700064389,200.49961880714082
589.0,15.749896533366792,132.451304289487
590.0,12.212946093666273,90.35331690065375
591.0,11.159664916229056,68.15297395777516
592.0,9.52094273568392,48.250530489765296
593.0,8.356337866934267,202.64701500050336
594.0,7.124833156341033,456.1100177641813
595.0,8.043983398447015,287.6686801570522
596.0,14.001316887663474,192.74142399236172
597.0,17.480028286292352,285.20417036077197
598.0,15.247541593190507,195.89018277296594
599.0,12.583814784865048,128.59721748618972
600.0,10.120507399577168,100.02891631998908
601.0,9.646525267680556,75.73579758576008
602.0,8.560696992429925,58.40315760758371
603.0,6.982012548591693,42.13842665211757
604.0,5.9751041656518025,33.908254661067865
605.0,5.005331527687117,28.90116408972373
606.0,4.659117376746784,23.84347060791172
607.0,5.011104074719979,31.224060885351207
608.0,5.486839567034616,31.40821812596006
609.0,5.476103766201291,29.10373900293255
610.0,7.2425449706582485,37.22012987012987
611.0,7.363414499491201,35.712405611697505
612.0,7.823675668679602,34.87626574841366
613.0,6.961761029424286,30.12822504010545
614.0,7.401906225685341,37.00515459875422
615.0,7.183002196542167,347.6238397578488
616.0,7.148149406689651,303.2564517435979
617.0,6.5260809976013165,171.48267119044567
618.0,5.616343110167786,130.21921577955464
619.0,5.226669036597128,90.69614738179317
620.0,6.268998434277558,52.25279987244197
621.0,6.5587995430913475,42.19327641143735
622.0,7.160989071309639,38.00733844175329
623.0,7.694357822905203,32.605454935162356
624.0,6.434352490561665,28.912942521344622
625.0,6.405080364167697,29.353302611367127
626.0,6.788865334800599,34.36869931768656
627.0,7.251687921980496,32.021523237952344
628.0,9.915033200808914,28.898279883559738
629.0,8.302754695642552,26.686851155297532
630.0,9.269380062785732,29.725306762230627
631.0,6.768009075439592,26.037143432199514
632.0,9.379396242788921,27.37033822915659
633.0,8.416684746099417,24.798859122446117
634.0,7.262489838487496,36.558722956000324
635.0,7.1055599265670075,29.660188827694732
636.0,8.763823795670172,30.62908880530237
637.0,7.647531874257764,34.66798097608026
638.0,6.416849748151323,27.394535240953097
639.0,6.0343657342907155,25.304736898510342
640.0,6.566768869917828,28.708258074971702
641.0,6.067651930404204,27.280521349849657
642.0,7.114846220265868,26.0682426704237
643.0,10.44029561397318,28.536425482677288
644.0,8.508166240166313,29.734034553934652
645.0,7.8028636078880345,28.880785963041284
646.0,9.373388643328079,28.67368322916966
647.0,8.107245888127085,26.53740961372747
648.0,6.40423738338766,29.65887377767787
649.0,10.396051103368176,61.830204937994075
650.0,8.900503000314538,77.98100918957962
651.0,9.093576965669989,59.07944843353695
652.0,8.588843639481299,43.381273889901045
653.0,10.011610045368485,38.36328725038402
654.0,8.836345449998863,34.049294791230274
655.0,9.184114210370776,32.247828190813934
656.0,8.730305953111655,27.696878765145833
657.0,10.66240586120556,25.200813190310566
658.0,10.434210825433631,26.78486342364812
659.0,9.74772264494695,33.99356982102668
660.0,10.746704533276176,36.15957560818776
661.0,10.142553495516736,32.65352052298789
662.0,8.860990508951279,31.93291964106009
663.0,8.884719524828942,28.164462892726664
664.0,10.238592574973012,79.34851970832429
665.0,14.329348800614788,95.6772606043497
666.0,15.689618136241377,83.20022963057838
667.0,16.09146524435987,76.91522103086747
668.0,14.220811300386071,257.1399374233802
669.0,11.950838754984913,443.634203847129
670.0,16.062952624440555,296.6108344476046
671.0,82.10687016068239,351.6328740880183
672.0,80.14052436137226,241.0812641392847
673.0,54.71463668894734,358.76761869434733
674.0,57.538568578634994,454.26360028794016
675.0,52.272827788828735,554.4596349435791
676.0,34.59034880671387,368.4383874714323
677.0,27.852474442652476,212.9683988941486
678.0,20.62958462136915,117.18343412270552
679.0,12.64782591751834,201.3479457526719
680.0,8.868111508396579,124.74680358401288
681.0,8.336897536072328,98.61072898094653
682.0,7.52360898666225,106.19773043910328
683.0,6.818936877076411,76.34085307041046
684.0,6.955846104383238,113.71925124138177
685.0,6.48421033829886,109.9911942271282
686.0,6.950576929946772,68.06344443253671
687.0,7.082431322116243,116.14385739291966
688.0,7.087593326903154,314.6960311506448
689.0,7.533623388425504,192.44090160170703
690.0,7.534619717647182,221.79433534341774
691.0,13.156957270676553,347.1472051810862
692.0,42.251261595886774,297.0754103159936
693.0,35.23515817978885,185.85428430278301
694.0,31.592859495361644,153.65155801145409
695.0,44.050457540343274,230.93160903466284
696.0,31.150406939714024,169.57240616774402
697.0,18.20487264673311,114.02454184974815
698.0,11.440011570836962,68.19589304991753
699.0,7.417519449548799,75.54300421795344
700.0,7.614673703269023,80.04492760820867
701.0,11.530892740606754,83.35179613718762
702.0,10.243126112538587,51.49032989954806
703.0,8.760823481131608,51.04453552412493
704.0,6.791010818906818,55.97311261613312
705.0,6.010712782725298,62.7999203633661
706.0,164.6430706979881,80.02519575887003
707.0,230.6910759048647,64.36366735412076
708.0,170.5989366679649,50.93181080548882
709.0,102.9864900894213,44.576980046405325
710.0,58.030495428735236,40.01775269601372
711.0,29.621369628121315,29.98431750794842
712.0,16.051119922837852,29.476404815489587
713.0,12.62083377987354,35.180437966634514
714.0,11.936537705855034,29.643964562569217
715.0,9.116118315293107,25.697942342728542
716.0,7.573822026935305,66.18979744936235
717.0,6.884221055263815,52.99296252634588
718.0,7.193423355838959,48.572250205408494
719.0,7.696802447365088,49.50858006709469
720.0,7.835728412622636,62.638698635697885
721.0,18.295508617414093,185.18956687223752
722.0,17.535542327140227,122.39678036392215
723.0,13.553592618933953,76.72802259006309
724.0,12.332054442181974,71.06379987854106
725.0,122.21519129782445,130.25279444861215
726.0,121.88570343805463,152.43860218103305
727.0,91.11623881580151,132.89389786471008
728.0,55.19886888098331,97.39874045166343
729.0,30.47040218242714,114.13710465944013
730.0,15.440445584154988,100.34683781018109
731.0,9.507791635507862,64.80363133624711
732.0,10.082256032807695,45.802238095158884
733.0,9.946704802586456,41.933751770220034
734.0,11.803810015696829,38.02201466980618
735.0,8.506718142950373,43.743437601560665
736.0,8.290740368018835,47.106957488501045
737.0,7.8621118694307714,42.53530455784677
738.0,7.309077269317329,35.56189047261815
739.0,8.279891401421784,39.831279248383524
740.0,8.761404636873504,30.02229128710749
741.0,7.838646072667993,26.693249096246188
742.0,6.584139240385009,32.29988786395205
743.0,5.835794837211045,24.77740436851373
744.0,6.9073541983848825,26.87156072356702
745.0,6.661434395659414,27.64430570740563
746.0,6.680441824108228,26.121130037023036
747.0,9.678930589473467,31.081532760447
748.0,8.135932268623062,30.6544376551851
749.0,8.367674584151263,27.131581850166373
750.0,9.756417937236922,27.022583694704164
751.0,7.793067909834601,28.402004072446683
752.0,8.18982663784413,26.043606284846476
753.0,7.872563088507318,25.333247074834908
754.0,9.807088531714811,23.21992257646293
755.0,14.280513508167983,52.38152918020445
756.0,29.116447230274467,152.85282296183803
757.0,27.19512369381544,142.49289456510468
758.0,25.386880055580768,191.21061483542957
759.0,21.350226789415853,195.08757246449596
760.0,17.350282186905975,222.7197052119929
761.0,15.187233402244471,256.88410867001244
762.0,16.640686395375067,318.6534151020272
763.0,18.06666439337107,327.67636227238626
764.0,12.261815453863464,294.10802700675174
765.0,10.042010502625656,170.79294823705928
766.0,9.561140285071268,203.85146286571643
767.0,10.474868717179294,261.10202550637655
768.0,8.354088522130532,238.12078019504875
769.0,8.244561140285072,178.81995498874718
770.0,6.981995498874719,180.88372093023253
771.0,5.664666166541635,369.6540563712357
772.0,4.918586789554531,653.7049262315579
773.0,4.8571306589713625,565.7650022261663
774.0,6.66712496939566,632.260595636714
775.0,20.584500219131435,532.3474771131807
776.0,14.852541968244672,477.9241225811679
777.0,14.089481429590846,422.7473915517206
778.0,10.616225484942664,249.24131032758189
779.0,9.81673989926053,268.21480370092524
780.0,12.264333940628013,375.5185046261565
781.0,14.540385096274068,352.44166398742544
782.0,26.14361804736899,509.2275140213625
783.0,26.364520049873096,669.2313996617621
784.0,17.881673514672617,447.65034485577365
785.0,13.555240358236535,368.6132444458913
786.0,9.970749630312234,300.58709980987487
787.0,7.377751034210881,181.23553227553006
788.0,8.34718338675578,116.07420036827389
789.0,8.091215985814635,98.22478346859441
790.0,10.896627565982405,271.5945918297756
791.0,72.94107617813545,354.0874991475141
792.0,161.64902914040198,201.37995862602014
793.0,117.17024873101391,284.88407329105
794.0,73.26967050204111,472.1018265930119
795.0,41.48125992537096,403.4249926117893
796.0,40.07892795181691,343.32917791532134
797.0,61.87955614180707,630.1409330436821
798.0,43.695789801108816,721.7284577241871
799.0,29.950313362312706,602.623972369399
800.0,21.478532525117345,343.9676501006785
801.0,14.053924195334549,256.27165005537097
802.0,9.650624568162947,151.42305948873977
803.0,7.261219050407201,119.29448607796547
804.0,7.720033666953324,92.35112436645747
805.0,7.624833037527674,56.963259107459784
806.0,8.54705139699559,54.49248897590251
807.0,7.733950560810934,62.77968272555944
808.0,8.383733738312626,43.986379521709694
809.0,8.541114895448601,40.202724287343614
810.0,9.979859773305694,59.93932163354427
811.0,8.715050191119207,74.4533213660558
812.0,8.534214803700927,56.3928473189726
813.0,9.34446111527882,46.91642553495517
814.0,8.361018826135105,45.45118422462758
815.0,7.143000035723217,78.19483442289143
816.0,7.867449005108419,150.17131068481407
817.0,6.810452613153288,164.69971064194618
818.0,7.551137784446111,149.26770978458902
819.0,7.088772193048262,115.07383988854357
820.0,6.782945736434108,84.82349158718252
821.0,6.161384858409724,96.35034019828998
822.0,6.573703181893034,83.43231295628786
823.0,7.170626106003852,59.95648441727157
824.0,6.255301978804805,55.875216452196675
825.0,7.728551214458667,51.09552270471799
826.0,9.082158039509878,43.11945218447469
827.0,7.654788697174293,32.473032543850245
828.0,8.774989043428103,28.55415142984352
829.0,8.429737225247077,28.887478315571922
830.0,8.04082510174582,31.300078242557156
831.0,7.54114987806185,37.828226525272434
832.0,6.276220100321248,31.3100810045717
833.0,6.824734755117351,32.11475726074376
834.0,6.957682277712285,31.77087843389419
835.0,6.7755403136498416,128.67951273532668
836.0,16.11434465759297,313.27447218947594
837.0,14.061242096238345,319.74291876540565
838.0,11.183528024863358,371.2214124959811
839.0,8.993819883542313,277.94777265745006
840.0,9.072035866109385,160.1814918015218
841.0,7.231486443039331,105.07576894223556
842.0,5.4409316614868,71.19487014610796
843.0,5.503661629693138,57.69946057943057
844.0,5.558657521523237,109.68131318543922
845.0,5.76579859250527,308.6388740042154
846.0,5.495802522059086,324.6731585493776
847.0,6.473777535292914,313.0425560935688
848.0,6.998704221509923,384.25683693650683
849.0,6.9010775421128,290.64904862579283
850.0,6.179060187124703,335.3046443429039
851.0,6.3176808812592755,219.10695287458228
852.0,6.1852248776479835,150.49212303075768
853.0,6.437645125567106,109.56364091022755
854.0,6.782588504268924,133.63778444611154
855.0,5.441217447218948,157.28471403565177
856.0,4.8167756224770475,232.99607044618296
857.0,5.550923445147001,429.11731504304646
858.0,6.724181045261314,328.62379880684455
859.0,11.945974298452661,251.20285689889369
860.0,10.099715259825409,267.5101074049
861.0,8.954110478839223,239.435661354363
862.0,7.374243822279612,131.9745377110828
863.0,7.689372473780466,98.04315782778447
864.0,7.713888293501947,66.63124352516701
865.0,7.990104669024399,43.36109027256814
866.0,7.373200442967884,35.589611688636445
867.0,6.725681420355089,40.642982174114955
868.0,6.428892937520095,44.411388561426065
869.0,8.000553709856035,38.809202300575144
870.0,7.221859036187618,38.96205122709249
871.0,8.069224448969385,33.76420533704855
872.0,6.589375915407423,35.11128496409817
873.0,6.3899260529418065,29.32714785839317
874.0,6.261015253813453,38.07563230093238
875.0,6.009146493940558,33.94663794432929
876.0,5.545702279228344,31.49065768184206
877.0,7.058169420403882,29.566528043160616
878.0,6.820943389157394,37.05131317672624
879.0,6.670697465307093,33.513126670169285
880.0,6.81725274524206,31.389922894486688
881.0,7.298948953266191,25.31713886659818
882.0,7.050339936900601,24.658176042268405
883.0,7.524205441604304,28.509168755603532
884.0,7.4174451278324804,29.283573768006463
885.0,5.981024088774806,31.71771135292534
886.0,5.575995915355145,29.672565353882025
887.0,5.606487336119744,33.582702818561785
888.0,5.532554044434454,42.22110823873216
889.0,5.868427559851636,54.161629388183286
890.0,6.103952643213068,44.179124985950324
891.0,6.152192686673411,35.25621276834889
892.0,6.201368286322452,48.24992746444451
893.0,7.296455647012799,89.438322559734
894.0,6.855531272745333,88.8559089408082
895.0,6.7180882170178275,64.98863035366064
896.0,9.133556116301802,73.7034680748109
897.0,9.80758826070154,61.35848572532744
898.0,9.906598402847465,56.016845120371
899.0,10.244704033151145,65.58871860822347
900.0,9.409459507734077,97.82702818561782
901.0,9.267035399964975,109.28356392233945
902.0,8.734106871665652,102.27346732153421
903.0,8.788749887820387,87.6052998441248
904.0,10.370181395523097,113.93283425385962
905.0,9.68096466625367,101.01705478634466
906.0,6.996750058594788,62.936893631073275
907.0,7.217100442357976,59.487722976040175
908.0,6.197063203083001,51.27454598841348
909.0,6.387389530309406,38.32735622930122
910.0,8.33308675600956,37.54475552686081
911.0,7.659416596309356,36.13621872367046
912.0,8.367395158894253,34.59037529417197
913.0,8.537041403207944,29.708484263923125
914.0,8.73117207873397,28.618415318115243
915.0,8.065421712571,29.269670989175864
916.0,7.244675432795481,30.695033470911284
917.0,7.005655420823846,26.84136519757117
918.0,7.669389472803741,29.6526161157014
919.0,7.341607178798183,30.44305152943288
920.0,7.477639444704382,31.124897949225982
921.0,7.063535918822911,39.485569127473504
922.0,7.550522648083623,48.57701097748304
923.0,6.7626728110599075,42.21061406466599
924.0,5.540706605222734,45.18095987411486
925.0,6.1499194485032405,41.82636469221835
926.0,6.531564946985876,37.85749878236109
927.0,5.8810460454834965,42.43763815518339
928.0,5.1010265632610245,40.64250121763891
929.0,6.067194934622156,30.643681390730958
930.0,6.340433104791877,34.858323030234914
931.0,6.413688134577198,50.51019070098535
932.0,6.217859016147765,53.383139556666166
933.0,7.425461766138398,81.32924258939299
934.0,8.30721966205837,71.37180723752367
935.0,7.1927803379416275,65.88866859572036
936.0,7.440538706105098,59.428142749973205
937.0,6.7580348919982605,63.631047570254935
938.0,7.459072520743426,48.1530813888141
939.0,8.580094500977161,37.46960389923265
940.0,10.183869138016211,32.134777596838234
941.0,8.896144767899292,33.2588512981904
942.0,8.28710226337072,30.353008983953305
943.0,6.813608454378404,41.880805567245474
944.0,5.944569766134913,48.727578236022424
945.0,6.373356405303416,40.45563655722293
946.0,6.394201337790894,37.31039292924277
947.0,6.819006145264539,30.255346502130763
948.0,6.541607527317369,44.444493527563075
949.0,6.049905333476226,40.33833458364591
950.0,6.7649024625494345,36.860767456672534
951.0,7.467427832567898,32.702630361423104
952.0,7.217584884025884,27.629259666833086
953.0,6.949038217742589,30.309637513908093
954.0,7.182276405338268,28.76695393360535
955.0,6.542357714864256,41.150196085606765
956.0,7.256714875583007,36.60280923889509
957.0,8.485071616336139,41.71513305155557
958.0,14.745661589613432,39.62546385725351
959.0,10.215764742579374,35.02471349544703
960.0,7.642894173020607,36.989540067943814
961.0,6.890290516880091,38.92671338566349
962.0,6.1531436866185185,43.96146336235626
963.0,6.038383724851073,40.95324266606721
964.0,5.471278098270211,40.9446133310331
965.0,5.627306652447084,41.91992945971684
966.0,7.333086843139355,41.73762011931554
967.0,8.751259243382274,34.94453970635516
968.0,7.148287071767942,35.39200871646483
969.0,8.199799949987497,33.44919265530669
970.0,8.46007930554067,43.94148090594077
971.0,6.263497559930052,46.50318537822609
972.0,8.02074647581756,49.40458808081811
973.0,8.517660774078536,62.84486539753405
974.0,6.476384775636417,49.40630366650896
975.0,7.177710804007622,42.56276612707184
976.0,9.64232913629104,56.40679246466669
977.0,7.46002964155673,61.880226154099496
978.0,7.641653444720064,54.7991849878846
979.0,9.832454629336777,56.81707186378476
980.0,8.942378451755795,52.843139356267635
981.0,10.645482799271246,44.46979602043368
982.0,10.09451056143827,39.951153293549865
983.0,8.299943452762145,37.26897142404068
984.0,7.860774427056241,39.90267776003235
985.0,9.109342666677122,40.84688419491633
986.0,7.2190338525397895,38.822827658134045
987.0,6.378203000227408,38.248156551332954
988.0,9.559685217471614,40.03997689317799
989.0,7.57466631466229,45.99673263263551
990.0,6.91482931708537,41.30712207668642
991.0,6.542130480355281,34.89856871883476
992.0,7.083851457369837,31.57181053505135
993.0,7.695170268042754,32.5874863248109
994.0,8.16811169423286,37.199148085064685
995.0,8.842352564152833,34.5944031069413
996.0,7.98404110542511,32.747470370674954
997.0,7.873166026698312,38.42169863023247
998.0,6.737489686010353,39.59262594394243
999.0,8.308149336985814,160.39229232395206
1000.0,6.9730507539776925,115.94527246794277
1001.0,6.591748111243838,84.35090044288074
1002.0,6.607439751924043,61.71439593347814
1003.0,10.881855481291925,46.75534214564094
1004.0,9.411295332543936,34.90280235564117
1005.0,7.745590578829377,68.66312788998644
1006.0,6.696912032886271,76.0846361416138
1007.0,6.041060265066267,122.1323259386275
1008.0,5.413103275818955,70.58761833315471
1009.0,4.777212160182902,46.72809630979173
1010.0,5.516513056835637,43.2180002792906
1011.0,6.279761904761905,170.48352234162437
1012.0,7.985614260708034,227.55442058566587
1013.0,16.67859822098382,499.70005975519854
1014.0,14.908218125960062,320.07879242537905
1015.0,35.64437537955918,303.8959739934984
1016.0,60.59600614439324,221.01250312578142
1017.0,52.79207301825456,141.85950058943305
1018.0,49.77673599584565,166.9448302842261
1019.0,38.17771533475703,337.3435329215579
1020.0,22.933943938946406,503.1920215245449
1021.0,16.66839732581229,540.1237677015073
1022.0,11.4270278767031,390.59449102852204
1023.0,9.345206269099743,347.6553812154337
1024.0,9.544152271834193,228.78101018761183
1025.0,8.261769987951533,147.43308716789588
1026.0,30.542294664575238,194.97406250913377
1027.0,31.176385005342247,144.92615524010873
1028.0,49.179911861082154,123.8543986646012
1029.0,40.08045355494718,101.45906444143503
1030.0,24.811776807838324,90.86023453915425
1031.0,14.934983745936485,55.340299360554425
1032.0,11.095773943485872,44.493480512985386
1033.0,8.303397277890902,43.505572821776866
1034.0,7.933419069052978,40.1978708962955
1035.0,6.059207659057622,43.460300789483085
1036.0,39.56973886328725,270.1410924159611
1037.0,84.27999321258886,231.7310863430143
1038.0,81.7508814703676,504.49960347229666
1039.0,48.889438431036325,384.89246686671675
1040.0,27.311577894473615,222.3361911906548
1041.0,15.934703187992119,127.0202367665087
1042.0,8.675957316855346,74.56672181982779
1043.0,6.721610280618934,36.43404143718857
1044.0,7.308961822337117,35.43514667865573
1045.0,8.339893335703263,54.052755349116026
1046.0,8.114557210731254,57.50088593576965
1047.0,8.264708075973697,48.23758282776269
1048.0,10.431970013409277,45.76510477793664
1049.0,8.885235111438613,55.77446692604414
1050.0,6.701932384426483,53.449927708011884
1051.0,8.313625607066955,39.62502949541629
1052.0,7.194971733509874,45.197644566748274
1053.0,7.120584945095951,46.03421014819749
1054.0,7.102439372909429,34.39145718485371
1055.0,6.932815085304427,43.115163808373694
1056.0,9.41689516455769,30.810395107487672
1057.0,9.524827635480298,28.98262065516379
1058.0,8.88568570714107,44.37341478226699
1059.0,6.60186475190226,52.18865430643375
1060.0,9.458471760797341,102.3775229521666
1061.0,10.462066815405148,149.43151534636905
1062.0,10.070671888751408,297.7259298590881
1063.0,10.236180798446366,454.854900413415
1064.0,14.014787787856054,627.6777574263696
1065.0,17.02357651101087,658.2921884691953
1066.0,25.190887007466152,833.7934805129853
1067.0,25.588406030078946,901.1209927481871
1068.0,27.386368913656984,481.4844595077341
1069.0,20.741974779409137,239.46924588289926
1070.0,15.793798449612403,118.06933876326222
1071.0,11.247154471544714,330.9541980442846
1072.0,8.497128415775151,631.0887454402402
1073.0,6.810392164876822,457.0493650396286
1074.0,5.567981290935657,256.6730597818127
1075.0,6.191651935790409,148.77241698768054
1076.0,5.194016369154056,74.28321872200708
1077.0,5.5407890300101155,97.79369075718407
1078.0,4.765018170919037,113.76858116968268
1079.0,18.439797797881525,290.37624894028386
1080.0,61.8489874210713,224.60055882873155
1081.0,139.19422364301874,222.0899737129404
1082.0,104.79073339763511,285.4001000250063
1083.0,69.89019982268294,296.19320739275724
1084.0,40.44683898247289,346.84839391666094
1085.0,25.42897087908341,417.6079929073177
1086.0,17.69498056332265,298.25560935688463
1087.0,14.301899338470982,223.54664802564275
1088.0,10.817249766987201,157.35442302133976
1089.0,9.890108890859079,118.14880668219003
1090.0,10.000193230125713,258.10516103051737
1091.0,9.251784537043353,183.95618141548374
1092.0,7.568108490537268,131.0471934185637
1093.0,13.710555687702414,243.3712513494227
1094.0,18.482023816058543,377.1971285504303
1095.0,17.41843126286798,236.71559353252945
1096.0,12.672635057719134,161.1719288707194
1097.0,9.961472075335905,109.59113471747727
1098.0,8.040138083301313,84.4867553996513
1099.0,7.744339394953268,246.3551288518994
1100.0,8.420863689156372,311.2315438298916
1101.0,9.171439953748335,211.9318062806801
1102.0,8.856457304063108,148.26313816338154
1103.0,8.25828372677585,169.4930167606837
1104.0,7.22706813066903,144.0525759686675
1105.0,6.424838352445254,137.5555960418676
1106.0,5.814069588825777,105.11988354231417
1107.0,6.382841246025793,77.7769156574858
1108.0,7.869637052120173,93.39232129460936
1109.0,8.92156967813382,68.38990104669024
1110.0,8.473261172435967,61.69328046297288
1111.0,7.727253241881899,60.79037616546994
1112.0,8.347872682456329,97.83799521308899
1113.0,7.469060122173401,78.77316114742972
1114.0,7.213024684742614,56.32782481334619
1115.0,7.656417675847534,93.43449791019184
1116.0,7.401352123745222,107.79976958525346
1117.0,8.838335476726325,92.58855696066873
1118.0,7.584519823335626,113.74891065972068
1119.0,6.712420265345083,84.83482586674543
1120.0,7.228788904543209,66.63348764020273
1121.0,8.84486278364016,71.74617260586923
1122.0,7.810278353560515,64.98899027892861
1123.0,6.1008605809989085,79.47390767552515
1124.0,7.207543174992354,113.95498613329289
1125.0,6.3948022719965705,80.27222162683528
1126.0,5.819904976244061,73.7501661129568
1127.0,5.787671917979495,234.3229450219698
1128.0,5.648444253920623,344.259398778266
1129.0,5.908153824170329,307.444956774908
1130.0,6.901657557246455,206.22046225842175
1131.0,6.082774003605431,126.1777257903326
1132.0,5.958741340387361,68.78448322882113
1133.0,6.393349164817336,56.71597433330458
1134.0,5.6030618935221606,50.99305664830842
1135.0,9.096926670692064,45.54584377801767
1136.0,8.85658914728682,62.16804201050263
1137.0,10.183670917729433,66.20230057514378
1138.0,10.263708784338942,60.60336512699603
1139.0,9.326581645411354,135.06230128960811
1140.0,7.883470867716929,120.81809738148823
1141.0,7.1961561819026185,134.53377630121815
1142.0,6.091951559318401,99.59818526060086
1143.0,7.298038795413138,100.88386382309862
1144.0,7.04236773479084,209.4275711785089
1145.0,6.252991819383417,248.71092773193297
1146.0,6.771881994888966,275.4915958954895
1147.0,7.406150318067321,199.467112422705
1148.0,7.303829006031996,125.12434903150874
1149.0,6.3984136277971935,65.06463941769414
1150.0,6.370921998792381,49.3801804109564
1151.0,8.67191710819691,50.7383274390026
1152.0,8.19827169335888,44.241705025559526
1153.0,8.039312964129532,46.650978946827294
1154.0,7.629308895168043,43.439035717117434
1155.0,9.5499397497458,43.84645203112625
1156.0,9.421255139568864,46.08599623773539
1157.0,8.71495487112196,43.16298238322646
1158.0,7.3766250796148505,48.81926492075981
1159.0,6.66949533550635,45.89350342812183
1160.0,9.567082537184818,37.41103742834663
1161.0,251.57060693744864,62.64349101212585
1162.0,297.28146322294856,78.32856428392812
1163.0,190.21683992426676,152.65291322830709
1164.0,139.9383319855938,187.4709895006219
1165.0,81.51964289773743,245.89138193639317
1166.0,44.11633103080965,281.16099479415305
1167.0,22.612357634863262,237.95996726454342
1168.0,19.978346859442134,681.0234945099911
1169.0,16.29195935347473,546.4127736479575
1170.0,18.077337516197233,440.06760212780466
1171.0,28.23179820929258,405.26402379815727
1172.0,34.21881906540571,404.24707912742423
1173.0,21.442867897294004,268.38347954870835
1174.0,15.089750459592919,259.68112632553743
1175.0,10.72792099123682,325.5393628626937
1176.0,8.666339661838535,195.49903341219917
1177.0,7.276069017254313,124.25271942985745
1178.0,8.24863358696817,166.26835280248633
1179.0,8.222609659383487,275.9176649563087
1180.0,7.7867236844054215,278.735544513306
1181.0,6.507765443102935,205.43603932341972
1182.0,8.278817526681323,133.1614698099612
1183.0,8.11982350988444,113.79979751035319
1184.0,7.466509484513985,78.33480190605142
1185.0,8.572214482191976,66.82384184896398
1186.0,6.841246025792162,48.40179339259902
1187.0,5.680991676490551,54.40634984530105
1188.0,5.340120744471832,60.0959346979602
1189.0,6.688493551959418,51.607437573679135
1190.0,6.622191262101239,58.53627692637445
1191.0,7.529650269710285,69.803129353767
1192.0,7.090931823865057,101.05887510838748
1193.0,7.45159017026984,172.07973421926908
1194.0,6.8135670281206675,247.66777408637876
1195.0,6.445436034333259,184.69040474404315
1196.0,6.197086609314666,192.3071035616047
1197.0,6.617144545876728,180.84937630511524
1198.0,6.772836066159396,152.11695781088127
1199.0,6.946808130604079,220.08698603222234
1200.0,7.441183466598356,245.38651126196186
1201.0,7.789341063488868,188.88725055828417
1202.0,8.246508491234307,136.9826350315802
1203.0,8.84831050968317,94.72275037400465
1204.0,7.514552854241435,63.275103619110354
1205.0,8.287960927514108,45.42472726195486
1206.0,7.587989680346916,35.37073536676852
1207.0,6.801588201928531,33.79447422831318
1208.0,7.05021782053052,31.262783046094118
1209.0,6.472577920374931,34.318741932077884
1210.0,6.113775753488579,32.692771737834676
1211.0,6.958097554163643,27.366950385046373
1212.0,7.975508257805661,26.65593782037527
1213.0,7.141999175752126,37.990689745607135
1214.0,8.206944288336892,42.36669663931662
1215.0,6.78169527137882,39.68102631058461
1216.0,5.624891414491254,45.816511619193996
1217.0,6.785601452627965,56.3044942420274
1218.0,7.07966146588912,43.69394657026625
1219.0,6.632791473129606,59.23127471763411
1220.0,6.698616291703588,70.37220149985231
1221.0,7.480138762913724,94.68729028947132
1222.0,7.140303368525057,80.49536164528936
1223.0,6.76251989826725,62.346421971346494
1224.0,8.072611358414516,57.17662255285076
1225.0,7.012674771480327,56.631447060371364
1226.0,6.5946068398632764,37.62567819655262
1227.0,6.812517589327646,32.87521444821135
1228.0,7.280767055875467,27.53910211002228
1229.0,8.716420394297181,24.390672406777654
1230.0,8.6857742310142,26.148038664718445
1231.0,7.167003858978682,28.982237458319283
1232.0,6.91506652795603,46.99050577104206
1233.0,7.708029685992927,49.90351784374664
1234.0,7.077018383515739,48.20934153398977
1235.0,6.4844460243980855,41.32686176770673
1236.0,6.691710384042002,74.61298077132523
1237.0,5.892581159227088,56.85982514792461
1238.0,6.050388032548206,43.989222044187
1239.0,8.546437131931066,37.357317552384615
1240.0,8.158404583724328,33.38861718914049
1241.0,8.109870673243224,43.58851428885096
1242.0,7.776937265675304,39.935712151034274
1243.0,7.124027522560082,32.910841821953746
1244.0,5.941636105890584,33.991612885799846
1245.0,5.41445073812007,56.21042934949766
1246.0,6.510220760765104,59.96120545815896
1247.0,6.6507985881487794,44.275301403748145
1248.0,6.305894417855335,56.345827746135136
1249.0,6.6982808419875,43.90411540167271
1250.0,6.095309541671131,60.65025184867645
1251.0,5.745472082306291,79.2941985496374
1252.0,5.511592183760225,59.755188797199295
1253.0,5.694727253241882,48.1257099989283
1254.0,8.789151120532747,47.55993266609335
1255.0,9.1726093544292,41.50577278465958
1256.0,8.098472353279957,41.66111649863686
1257.0,7.528230925327151,47.81855524856824
1258.0,7.7622846478170064,76.08240126233649
1259.0,10.438465016951103,105.02679502628271
1260.0,11.990840915803863,199.59630935608467
1261.0,11.472210387091547,265.855983159553
1262.0,8.613449529629793,197.5769038078335
1263.0,6.771465950111221,118.27644890316657
1264.0,7.507986752785757,92.07024317054874
1265.0,6.918273470806726,83.56218688818547
1266.0,6.430400457257171,67.57445075554602
1267.0,8.14791555031615,69.4296717036402
1268.0,8.4340477976637,55.191580037866615
1269.0,6.969479869967492,47.46518593934198
1270.0,6.261864246549441,34.060031994061234
1271.0,6.909883829842477,32.174418604651166
1272.0,6.766743079498097,39.1914764405387
1273.0,6.581421052127143,50.49108705747865
1274.0,6.198928652023633,44.12956810631229
1275.0,6.990944600261564,48.52731824071
1276.0,8.703640195763228,48.21023112921087
1277.0,8.684528274925874,46.71614332154467
1278.0,8.416175472439537,41.689922480620154
1279.0,8.067178815609825,37.140735096666155
1280.0,9.031746089832563,36.9578483471042
1281.0,9.535798758051882,37.327761382854426
1282.0,8.338041914659849,34.497714149791804
1283.0,8.779637897279198,57.03526796333229
1284.0,10.008229648875634,131.71834208552136
1285.0,9.791319781164804,154.54868717179295
1286.0,11.467837778259895,127.24208552138033
1287.0,9.648736879341786,103.6932751044904
1288.0,8.625193645972468,79.75173882756403
1289.0,8.495680540344146,67.57750151823669
1290.0,6.819457611655661,60.92067797169072
1291.0,6.210036025489888,64.0379119505151
1292.0,8.177214633328662,55.52471634392114
1293.0,9.822665831292987,46.96790955980754
1294.0,7.7997603796553525,49.787798598001146
1295.0,6.788572143035758,39.393544814775126
1296.0,8.203425856464115,55.57503661629693
1297.0,45.581499270921626,88.56171185653557
1298.0,66.28662360395293,180.42639231236382
1299.0,52.073544360116,145.3549816025435
1300.0,33.97384573416081,115.89808166327296
1301.0,20.02878154603586,133.90564605437072
1302.0,14.542983148384497,189.95612214741996
1303.0,10.503674619953689,153.19148943079927
1304.0,9.086420955888322,94.7469075060973
1305.0,8.989046937058939,64.91096313039299
1306.0,9.933622790398264,49.04179343061929
1307.0,7.916591453850159,98.05975302029498
1308.0,9.87915094072853,176.61379521709694
1309.0,9.261995361051222,147.96148982803192
1310.0,8.650122104488744,107.67573339327862
1311.0,112.05894574292924,142.2824991962276
1312.0,172.132649233737,152.55011886088403
1313.0,94.6990140392241,126.43259029042974
1314.0,76.49098729386179,128.41684027278598
1315.0,87.24827548350501,224.6727901487567
1316.0,54.991729639727,173.61396446672643
1317.0,46.610268420763724,139.16107075549377
1318.0,42.88240352771119,113.3299727370867
1319.0,31.31687190090205,207.0907360986588
1320.0,19.920480120030007,154.09527381845461
1321.0,14.084771192798199,98.83570892723182
1322.0,10.556639159789947,66.36459114778695
1323.0,10.623405851462866,54.47186796699175
1324.0,9.275568892223056,40.05487086057228
1325.0,9.240249086661908,37.19794757051632
1326.0,7.954565296376359,37.173510276523835
1327.0,8.646449940011134,44.8782030002274
1328.0,8.303601161614445,45.6979527983041
1329.0,7.765471855768819,41.51909928701687
1330.0,7.112663618866389,61.53273161495949
1331.0,8.284862156305628,45.250451114520786
1332.0,7.36523677957817,47.48381520467225
1333.0,6.933051119922838,66.17998785410639
1334.0,6.730043225091986,48.618411745793594
1335.0,8.322394884435395,46.00889865323474
1336.0,8.28310291858679,36.94856035437431
1337.0,8.801341406780267,34.991534490765545
1338.0,9.443412638874005,31.397783374415035
1339.0,9.827705532654942,37.02334093976455
1340.0,9.560550154960342,38.32772269722483
1341.0,7.575473877180096,37.294018887997254
1342.0,7.28859429578649,61.00590273875089
1343.0,7.20434028367719,70.84854401753748
1344.0,6.8130277342854875,45.215774762505944
1345.0,6.520876386343973,30.714569408902747
1346.0,6.376288584341207,27.409512047001293
1347.0,5.961953815980127,30.957060170966084
1348.0,6.37437525757746,33.13186842006669
1349.0,8.144738863287252,44.55199692780337
1350.0,6.52642089093702,51.53256528417818
1351.0,6.825038402457757,38.385330261136716
1352.0,8.250076804915514,39.12162058371736
1353.0,7.791914877674122,49.18170919036379
1354.0,7.376448990296354,50.05444906522798
1355.0,8.643752575774606,45.22793825634109
1356.0,7.949372447641528,45.31579149934775
1357.0,11.490609847583848,217.82190996751405
1358.0,28.85309406619948,397.6626690446764
1359.0,20.59040674802847,515.8234012890299
1360.0,17.039572393098275,579.5921756413129
1361.0,11.895723930982745,545.4700460829492
1362.0,9.649526017868103,454.18210071998516
1363.0,6.775625724612972,433.8400054559094
1364.0,6.2884130123439945,455.9467951403435
1365.0,7.524533730835307,370.34265059771434
1366.0,7.3289603680616064,243.42487954107625
1367.0,5.949915179143218,132.7357954471196
1368.0,5.509722378329774,67.17719455996402
1369.0,4.696796673035855,35.873159491963584
