time,emg_right_hand,emg_left_hand
0.0,5.611111111111111,3.4166666666666665
1.0,5.832275132275132,3.138888888888889
2.0,5.294913280627567,3.723616473616474
3.0,4.817626197626198,3.276735306735307
4.0,5.485231314263572,3.26293643874289
5.0,5.218012482528612,4.009540415992029
6.0,5.552580229999585,4.293300673945835
7.0,4.360471070148489,3.900307219662058
8.0,5.574705581157194,3.673195084485407
9.0,5.994802175447337,3.8486943164362515
10.0,5.268471236213172,3.5974142345110085
11.0,6.481905869002643,3.947900665642601
12.0,7.031275515146483,3.9815668202764973
13.0,6.643611353288772,3.8744551002615513
14.0,5.5410733313959115,3.8512060447544316
15.0,5.486946624043398,3.503027220769156
16.0,4.340695534243921,4.334398915044076
17.0,4.807879769170092,4.078720194849227
18.0,4.424670292412228,3.7995557769751316
19.0,5.609288551224035,3.1282725121434796
20.0,6.149020910311233,3.228913936978453
21.0,5.658739845836619,3.022611090353026
22.0,5.560980335173883,3.500121088830766
23.0,5.41279943538008,4.067354451225419
24.0,5.307654197976778,4.315935290128838
25.0,5.801071117200149,5.244134457037682
26.0,5.67114487759649,4.72600988084859
27.0,5.213466461853558,4.234408602150538
28.0,5.518817204301074,4.250896057347671
29.0,5.656810035842294,4.131720430107527
30.0,5.779237071172554,4.312442396313363
31.0,5.510138248847926,4.597977470558115
32.0,5.488044034818228,3.944598054275473
33.0,5.718484383000511,3.8101126472094213
34.0,5.920174091141833,3.8615975422427034
35.0,7.421377368151562,4.128494623655914
36.0,6.053212659664272,4.510689721980045
37.0,5.978219233057943,4.166187154896832
38.0,6.061690261690262,3.8442942942942944
39.0,5.066542118155022,4.11878329942846
40.0,4.312021699118473,4.296667635377313
41.0,4.431415286253996,4.291654557783589
42.0,4.873413736316962,4.564734088927636
43.0,5.448416158093577,5.2245955633052406
44.0,4.898987005438618,4.783153429927623
45.0,5.123546588062718,3.7841345954249177
46.0,5.484712362131717,4.646995613124645
47.0,4.720850804721772,5.2710784517236124
48.0,5.736624181785472,4.550534866663899
49.0,5.09992250314831,3.921001646808098
50.0,6.579216313087281,4.337668313474765
51.0,5.69291872517679,5.623728567276954
52.0,5.3052407245955635,5.025573961057832
53.0,6.214327230456263,5.346071878329942
54.0,4.7986777099680324,5.214399883754723
55.0,6.790371016177467,5.670105589460428
56.0,6.692918725176789,5.583962995253318
57.0,6.005957570473699,5.6732538990603505
58.0,6.110602538021892,5.284922018792987
59.0,4.828765170700654,5.068280261828649
60.0,4.839452816872171,6.149319826739181
61.0,7.0331278282891185,6.922623545204191
62.0,6.155004774359613,5.7059354285160735
63.0,5.930209933435739,5.196569380440348
64.0,6.172129502774664,4.556560938819004
65.0,5.027372995114931,6.276936383387996
66.0,4.903855468371598,6.054853240337112
67.0,6.0227162646517485,4.689164971423036
68.0,6.417272110820498,4.548435532306501
69.0,6.356848784268139,6.158263101811489
70.0,5.939625108979948,5.932626174561658
71.0,6.057032839290904,5.758863702412089
72.0,6.340792405308534,4.99009493364332
73.0,5.390632568051922,5.395040201491814
74.0,5.73353191901579,5.126126126126126
75.0,5.015063450547322,5.98241790177274
76.0,6.279545674706965,5.381260292550615
77.0,5.487794245858762,6.277729342245471
78.0,4.8216361522813145,6.5012108883076625
79.0,5.094061803739223,7.256877845587523
80.0,5.072120507604379,5.798241790177274
81.0,4.493558074203236,4.746633730504698
82.0,5.008766831347477,4.022546740288675
83.0,5.849365494526785,3.236631793083406
84.0,4.887534769792834,3.0980009963880932
85.0,4.699591757656274,3.3415632222083835
86.0,4.894982078853046,3.527675371223758
87.0,6.215412186379928,3.0994111623143885
88.0,5.481362007168459,3.156784434203789
89.0,5.229371998726837,3.7321722644303286
90.0,5.423377755635819,3.9727169565879246
91.0,4.797863993025283,4.772533593501335
92.0,5.102785043107623,5.4539191264997715
93.0,6.616865252349123,5.158435393919264
94.0,6.139053569698731,4.503173911238427
95.0,4.685566211372663,3.8326801455833714
96.0,4.14426523297491,5.189213406955342
97.0,4.89426523297491,9.135377312796667
98.0,5.185047951176983,9.780417514288482
99.0,5.668095514869709,7.7015160321611935
100.0,6.26460331299041,6.766976654073428
101.0,5.236050566695728,6.068318318318319
102.0,5.853240337111305,5.507725467402887
103.0,5.546691853143466,3.7928412283250994
104.0,5.498764893926184,3.9284849365494523
105.0,5.063450547321516,3.9073428266976653
106.0,5.431899641577061,3.6442652329749103
107.0,3.7876344086021505,3.673835125448029
108.0,4.260752688172043,4.465949820788531
109.0,3.9392376247214957,3.7987503632664925
110.0,5.660248958636055,4.430349704543254
111.0,5.5330814685653396,4.668579870192773
112.0,5.582848978010269,4.682408214666279
113.0,4.332945849074881,4.866414801898673
114.0,4.186040879589267,4.7047854305918815
115.0,4.283565823888405,4.66557686718977
116.0,4.649011915140948,5.630146275307565
117.0,4.099147534631405,5.16274338854984
118.0,5.081034721357302,5.109992942251006
119.0,5.945087253151769,4.776322636000055
120.0,6.100411010088429,5.587073248363571
121.0,5.5641065028161805,5.69879672299027
122.0,5.089400921658986,6.329237071172555
123.0,4.722144725370532,5.356809343906118
124.0,5.134369853724692,5.560125102060586
125.0,6.6392279376150345,5.44478349317059
126.0,5.40626271432723,5.400655955494665
127.0,5.539600891213794,5.513948049431921
128.0,6.555376344086021,4.721761392729135
129.0,5.323835125448029,4.69152585765489
130.0,5.4275985663082436,4.983307731694829
131.0,6.50268817204301,3.881720430107527
132.0,6.629928315412187,4.759856630824373
133.0,6.070020481310804,4.557782898105478
134.0,6.022017409114183,4.597439836149514
135.0,5.40079365079365,5.582770097286226
136.0,4.4072528749948106,4.726057624444721
137.0,6.08086658086658,4.637670389283292
138.0,5.574227453259711,4.700402014918144
139.0,5.200644192579675,4.8846992153443765
140.0,5.117795214569408,5.5341954858083895
141.0,4.795698924731182,5.902329749103943
142.0,6.14426523297491,5.730286738351254
143.0,4.705923665601085,4.908844328199167
144.0,5.873123123123123,4.609440085246536
145.0,6.674823210307081,4.5937497405239345
146.0,5.890611809966648,4.998807793969084
147.0,5.663047840467195,5.162934362934363
148.0,5.071812596006144,4.708755760368663
149.0,4.945110087045571,4.8208909370199695
150.0,4.575422427035329,5.6189452124936
151.0,4.485253456221198,5.976395289298514
152.0,5.103225806451613,5.2616231438812076
153.0,4.945878136200717,4.038965693804403
154.0,5.304531490015361,4.262800819252432
155.0,5.937660010240655,4.193676395289298
156.0,5.033794162826421,3.6582181259600612
157.0,5.10573476702509,3.9775985663082434
158.0,4.726702508960573,3.978494623655914
159.0,6.530465949820789,3.5797491039426523
160.0,5.941756272401434,3.28494623655914
161.0,6.058243727598565,3.009856630824373
162.0,5.124551971326165,3.370967741935484
163.0,6.463261648745521,3.1129032258064515
164.0,5.91515616999488,3.215079365079365
165.0,5.594674859190988,3.3651561699948793
166.0,6.827803379416283,3.4016641065028157
167.0,5.324295954941116,3.61884280593958
168.0,4.917972350230414,3.3255504352278544
169.0,5.023297491039427,5.480286738351254
170.0,5.781362007168458,5.436379928315413
171.0,6.804659498207885,5.071684587813619
172.0,7.330039717136492,4.831468565339533
173.0,6.988496561077206,4.560447544318512
174.0,6.766201685556524,4.481836675385062
175.0,5.787222706577545,4.219412961348445
176.0,5.534292356873002,4.1706383803158
177.0,4.497747747747748,4.68993993993994
178.0,5.067422260970648,4.426959217281798
179.0,4.292671703962027,4.549501114017243
180.0,5.592354797193506,5.085810464842723
181.0,6.508991018668437,4.6840342646794255
182.0,6.494009216589862,4.408858166922684
183.0,6.47357910906298,4.614644137224783
184.0,6.504710701484894,4.827035330261136
185.0,5.679851510496672,5.119354838709677
186.0,4.599334357398874,5.056989247311828
187.0,4.113671274961598,5.218894009216589
188.0,5.049923195084485,5.112672811059907
189.0,6.019585253456221,5.170583717357911
190.0,5.324756784434204,5.43699436763953
191.0,5.7981068626229915,5.400287845449136
192.0,5.36244308824954,5.0942555458684495
193.0,4.872154412476993,4.7262908069359675
194.0,5.033299428460719,4.959919597016371
195.0,5.671322013257496,4.821293643874289
196.0,4.93984583662003,4.681788931788931
197.0,4.790372400049819,5.611249498346273
198.0,4.359537648247326,5.315650904360582
199.0,4.632725813370975,4.265800362574556
200.0,5.240530853434079,4.365107042526398
201.0,5.9205657270173395,4.273757628596338
202.0,6.827956989247312,4.813620071684587
203.0,7.120967741935483,4.46236559139785
204.0,6.405913978494624,4.57258064516129
205.0,6.400489198876295,8.254262326842973
206.0,6.177395137072557,7.916109658045142
207.0,5.331081081081081,7.16862830572508
208.0,6.71975201007459,7.5318947980238296
209.0,5.672164791519631,7.14181785472108
210.0,7.127276815986494,6.674221917770304
211.0,5.918925146344501,6.155659345981927
212.0,5.122096981774401,7.146826088761572
213.0,4.568920994727446,5.984370545660868
214.0,5.406477906477907,5.43632249761282
215.0,5.533666154633897,4.9378648233486935
216.0,6.059395801331284,4.871710189452124
217.0,6.027086533538147,3.8981054787506397
218.0,7.032744495647721,4.26405529953917
219.0,8.764132104454685,4.346185355862775
220.0,7.443445980542754,5.75642601126472
221.0,7.401382488479262,5.638965693804403
222.0,5.913082437275985,5.995519713261649
223.0,6.585125448028673,8.241935483870968
224.0,6.881720430107527,9.368279569892472
225.0,6.453405017921147,9.96057347670251
226.0,6.850358422939069,8.088709677419354
227.0,7.396057347670251,5.879032258064516
228.0,7.75268817204301,5.741039426523297
229.0,6.562796667635377,4.475879104911362
230.0,6.364646904969485,3.6178678678678677
231.0,5.273273273273274,4.002930349704544
232.0,4.648541398541399,4.683838446741673
233.0,5.964503674181093,4.715127108675496
234.0,5.202875686746655,4.59610855094726
235.0,5.215412186379928,4.225704045058883
236.0,5.162365591397849,3.990988223246288
237.0,4.991781874039939,4.107014848950333
238.0,5.059062980030721,4.184331797235023
239.0,5.450947260624679,6.134767025089605
240.0,5.579749103942652,5.285202252944188
241.0,6.220430107526882,4.889912954429083
242.0,6.444982078853046,5.085970302099334
243.0,5.432616487455197,4.681874039938556
244.0,4.854669185314346,4.374527753560011
245.0,5.255304382723738,4.785151741603354
246.0,5.279872960518122,4.5942008829105605
247.0,3.875241139757269,4.365418413805511
248.0,5.3067961971187785,3.963175156723544
249.0,4.4331132976294265,3.0322995806866775
250.0,4.892337498789112,3.1388328420586484
251.0,3.6788530465949822,2.8460317460317457
252.0,4.201177675371223,2.741909882232463
253.0,4.674065540194572,2.4171018945212492
254.0,5.003251408090118,2.664644137224782
255.0,4.838095238095239,2.6410138248847925
256.0,5.617972350230415,19.041833077316948
257.0,10.260752688172044,57.119175627240146
258.0,11.268042235784172,52.50416545577836
259.0,12.043519325777392,45.10154509348058
260.0,13.729826600794343,40.00079918628306
261.0,17.028891795020826,31.545650489198877
262.0,11.752639736510705,16.836772256127094
263.0,8.950716845878137,12.514918143950402
264.0,7.731860893151216,9.056669572798604
265.0,6.762472149568923,7.0928024798992535
266.0,5.77012496367335,6.250702315218444
267.0,4.912719170783687,5.296473893248086
268.0,5.04954954954955,5.120459168846265
269.0,5.57078853046595,4.690860215053763
270.0,4.766129032258064,4.585125448028673
271.0,5.237455197132617,4.791218637992832
272.0,6.164874551971327,4.45953211275792
273.0,6.711469534050179,4.5277051244793185
274.0,5.923835125448029,4.989659013852562
275.0,6.266129032258064,5.489901191514095
276.0,5.034050179211469,5.258839484645937
277.0,4.956093189964157,4.541218637992832
278.0,4.133585198101327,4.316550421389131
279.0,5.209265717330233,4.450837934708902
280.0,5.079991281604185,4.237067712874165
281.0,5.588443281991669,4.7017824275888795
282.0,5.5388452969098125,4.941393005909135
283.0,4.291121766928218,4.66966966966967
284.0,5.284897801026833,4.181609028383222
285.0,4.77378530604337,4.44337747886135
286.0,4.68394777265745,5.034485407066052
287.0,6.182027649769585,3.8967229902713774
288.0,5.292626728110599,4.071121351766513
289.0,5.197388632872504,4.455811571940604
290.0,5.984767025089606,4.130824372759856
291.0,5.56795505182602,4.820594788336724
292.0,5.442579676450644,4.715852949723917
293.0,4.94485614646905,4.755327908553715
294.0,5.500653879686137,5.22488617649908
295.0,5.822822822822823,5.1033614259420705
296.0,6.608883076625013,4.387774871645839
297.0,5.210355516807129,4.342632955536182
298.0,5.787973457328295,4.617553036907876
299.0,5.936549452678484,5.228131357163615
300.0,5.621573186089314,5.229632858665116
301.0,5.617383512544802,5.379032258064516
302.0,4.825268817204301,5.229390681003584
303.0,5.46505376344086,4.399641577060931
304.0,5.458781362007168,5.446236559139785
305.0,5.840501792114695,5.291218637992832
306.0,6.112007168458781,4.89426523297491
307.0,5.264797055119636,4.597500726532984
308.0,4.842075946914656,3.9035890729439116
309.0,5.960016468080984,5.173568730020342
310.0,5.518090671316477,4.6114259420711035
311.0,4.790710064903614,4.855177758403564
312.0,5.435411217669282,4.8237915334689525
313.0,5.923689818851109,4.522086602731764
314.0,5.343117310859246,4.508355129322871
315.0,5.958297006684103,5.64351448222416
316.0,6.134771868642836,5.194904582001357
317.0,6.869805289160128,5.101036520391359
318.0,5.784074396977623,5.020585101230262
319.0,5.810495979850819,5.003124091833769
320.0,5.165552649423617,5.07459071975201
321.0,4.413876088069636,4.937992831541218
322.0,4.708730158730159,4.825627240143369
323.0,5.718612391193036,5.3012544802867385
324.0,6.507603686635944,4.85
325.0,6.394623655913978,4.951356886840758
326.0,5.3828019263503135,4.783612183612184
327.0,6.5909785361398265,5.146977622784075
328.0,5.698860381118445,7.418846265620459
329.0,6.9475484701291155,12.541412380122058
330.0,13.514551417777223,16.497770581641547
331.0,13.46845462974495,12.403733687604655
332.0,10.975975975975974,7.843117310859246
333.0,7.803787658626368,9.745737673157027
334.0,7.592318124576189,7.663518357066744
335.0,6.776736413833188,6.362661048144919
336.0,5.097597597597598,5.9452194129613485
337.0,5.853216119345152,5.613896154218734
338.0,5.535658238884045,5.8348666638989215
339.0,4.506451612903226,5.608627752176139
340.0,5.191155671800834,5.686385463804819
341.0,7.367083212244502,6.222224989966925
342.0,6.186152973249747,5.1503854084499245
343.0,7.05221627157111,5.657527573656607
344.0,7.166968350839319,5.680735112993178
345.0,6.169457245263697,5.399846390168971
346.0,6.603993855606758,6.218740399385561
347.0,6.735687300203429,6.321127579192096
348.0,7.38486873970745,5.082606800348736
349.0,6.544584907488133,4.528310568633149
350.0,5.592197727681599,4.938873666293022
351.0,5.5057762831956385,4.44927554282393
352.0,6.10847414234511,4.7028417818740404
353.0,5.562749615975422,5.0696108550947265
354.0,5.097235023041474,4.950128008192524
355.0,5.254864311315924,5.313620071684587
356.0,5.263184843830005,5.057347670250896
357.0,5.290322580645161,4.311827956989247
358.0,5.172043010752688,5.18010752688172
359.0,5.578853046594983,4.247311827956989
360.0,4.795698924731182,4.240143369175627
361.0,6.14068100358423,4.637992831541219
362.0,6.525089605734767,4.554659498207885
363.0,6.707885304659498,4.129928315412186
364.0,6.541218637992831,3.6594982078853047
365.0,7.320279957376732,3.5881284510316767
366.0,5.977792308437469,3.662791824082147
367.0,4.510316768381284,3.601036520391359
368.0,5.872541896735445,4.4349268623462175
369.0,5.643708224353386,5.449094255545868
370.0,6.5642255158384195,5.176402208660273
371.0,7.334980141431754,5.408989634796086
372.0,6.154121863799283,5.012544802867383
373.0,5.764409570861183,5.504867770996803
374.0,5.486631793083406,5.593165746391552
375.0,6.043546311288247,5.254583385228546
376.0,6.577328711199679,6.336521083295277
377.0,5.660976183556828,5.6463071366297175
378.0,5.366524127814451,5.078069774843968
379.0,6.111674347158218,5.414797747055811
380.0,7.336021505376344,4.420250896057348
381.0,6.907706093189963,4.557347670250897
382.0,6.316308243727598,4.507168458781361
383.0,5.513440860215054,4.344982078853047
384.0,5.485663082437276,4.359318996415771
385.0,5.982693292370712,4.261904761904763
386.0,6.241346646185355,5.494751664106503
387.0,6.641730670762929,4.377074078686982
388.0,6.169431643625192,4.543823777694746
389.0,5.963748079877112,3.906768519671745
390.0,6.403225806451612,4.839969001259323
391.0,6.6817785527462945,4.530417514288482
392.0,5.7348984929630085,3.9078790772339156
393.0,5.270675052933116,3.8280434812692876
394.0,5.76840204259559,4.154613138484106
395.0,5.713054067892777,3.447378253829867
396.0,5.855219274574113,3.802590609042222
397.0,5.0532790855371506,3.8430688753269395
398.0,4.914632374309793,3.896444831928703
399.0,5.654000774968517,4.700910588007362
400.0,5.301053126859578,5.3425443877056775
401.0,5.793459819266271,5.901631585502553
402.0,6.383410138248848,6.157296466973886
403.0,7.508715628070467,6.990616653519879
404.0,7.077834516544193,6.417799366186463
405.0,5.788288288288288,5.541170202460524
406.0,5.860170769848189,6.545879520073068
407.0,5.815390044422303,6.023835817384204
408.0,5.308014696724374,5.367967506677184
409.0,5.987788710369356,4.92681529455723
410.0,5.738881277590955,6.962971727487856
411.0,6.071079143659789,6.643441828925699
412.0,5.135449966095127,6.917151021989731
413.0,6.316380897026058,6.893611353288772
414.0,5.336377852506885,6.942440597279306
415.0,5.942345110087045,7.0443676395289305
416.0,5.635151049667178,7.018151561699948
417.0,5.50663082437276,6.53494623655914
418.0,7.1211469534050185,5.652329749103942
419.0,6.800972862263185,6.227188940092166
420.0,6.936219399122625,5.522312865861252
421.0,7.0518910615684804,5.75981234690912
422.0,8.386006974716652,10.394652717233361
423.0,12.253487358326067,12.316501985856824
424.0,10.352998159449772,8.557444541315508
425.0,9.507168458781361,7.482974910394265
426.0,7.735663082437275,6.699191126610481
427.0,7.010752688172042,5.448609900222804
428.0,7.406810035842294,4.377530756563015
429.0,7.571587716749008,5.081589654170299
430.0,7.030417514288482,4.904146081565436
431.0,6.456222582029033,5.335408449924579
432.0,6.408218817896238,7.139478418510676
433.0,5.153443766346992,7.4336280981442275
434.0,6.53763440860215,6.362314388120839
435.0,6.873631696212341,5.935831222927997
436.0,6.881055479442576,5.794643722063077
437.0,6.276997273771467,5.665691036658778
438.0,8.541699533635018,9.447841159131482
439.0,7.313668507216894,17.08443005217199
440.0,7.970987116148407,12.611429401751984
441.0,7.390151672409736,9.269396354880227
442.0,7.803946803946804,7.8269024785153825
443.0,6.6271501916663205,6.398242482113449
444.0,5.895500339048726,4.602295844231328
445.0,5.77336460884848,4.19149610439933
446.0,5.35747567844342,3.663364055299539
447.0,5.6,3.867332309267793
448.0,5.161111111111111,3.913952892985151
449.0,4.9152073732718895,3.567332309267793
450.0,4.730568356374808,4.071786994367639
451.0,6.040911418330773,5.310087045570916
452.0,6.626446492575525,5.743983614951357
453.0,5.888940092165898,4.814644137224782
454.0,5.406528417818741,4.5918074756784435
455.0,6.528981054787506,4.674039938556067
456.0,6.243881208397338,5.0144393241167435
457.0,6.662186379928315,5.103942652329749
458.0,6.344982078853047,4.682795698924731
459.0,5.817204301075268,4.68010752688172
460.0,5.181003584229391,4.600358422939069
461.0,4.601254480286738,4.736559139784946
462.0,5.827956989247312,5.524193548387096
463.0,6.135176651305683,5.819815668202764
464.0,6.566692268305172,5.40094726062468
465.0,5.588453661034306,5.136405529953917
466.0,6.556323604710702,5.371070148489503
467.0,5.715514592933948,5.209165386584742
468.0,5.678801843317973,4.929825908858167
469.0,5.824167946748592,4.520916538658474
470.0,6.494854070660523,4.644726062467997
471.0,5.937839221710189,4.569226830517152
472.0,6.975217613927291,5.643445980542754
473.0,7.295852534562211,6.0291602662570405
474.0,5.931080389144904,5.972913466461853
475.0,5.675627240143369,5.791218637992831
476.0,5.596082949308755,6.007834101382488
477.0,5.25099846390169,5.620404505888377
478.0,5.35668202764977,5.617997951868919
479.0,6.776011264720942,5.252099334357398
480.0,7.457450076804916,4.858576548899129
481.0,6.234767025089606,4.953405017921147
482.0,6.821684587813619,5.660394265232974
483.0,6.275089605734767,5.248207885304659
484.0,5.5140809011776755,5.317153097798259
485.0,5.296236559139785,4.989682539682539
486.0,5.472094214029697,5.244188428059395
487.0,5.055043522785458,5.000230414746543
488.0,4.750435227854583,5.371018945212494
489.0,4.705478750640041,5.193855606758833
490.0,5.638504864311315,5.317511520737328
491.0,5.55284178187404,5.150921658986175
492.0,5.280901177675371,5.365335381464414
493.0,4.853814644137224,5.967460317460317
494.0,6.27995391705069,7.017332309267793
495.0,6.396902201740911,6.459088581669227
496.0,5.9632360471070145,6.632770097286226
497.0,6.174705581157194,5.409267793138762
498.0,6.356426011264721,6.0112903225806456
499.0,6.453302611367127,6.102867383512544
500.0,6.576779313876088,5.2504096262160775
501.0,5.679518689196108,6.0145417306707625
502.0,4.890450588837686,6.183307731694828
503.0,5.294239631336405,5.967101894521249
504.0,6.0964925755248345,6.5529953917050685
505.0,6.538837685611879,6.573988735279057
506.0,6.417716333845366,6.0880696364567335
507.0,5.406810035842294,5.336917562724014
508.0,5.621863799283154,5.026881720430108
509.0,7.445340501792114,6.78584229390681
510.0,5.818100358422939,7.015232974910394
511.0,5.460573476702509,7.043906810035843
512.0,5.268817204301075,6.945340501792114
513.0,5.780465949820789,8.227598566308243
514.0,5.681003584229391,7.202508960573477
515.0,6.140681003584229,7.35573476702509
516.0,6.758064516129032,7.292114695340501
517.0,7.579967063838031,6.438220478543059
518.0,7.478590802784351,6.105912594622271
519.0,6.772897551929809,6.3356623905011
520.0,6.937076016108273,5.727867037544457
521.0,6.132068474003958,4.8549729452955255
522.0,6.028981054787506,6.279467485919099
523.0,6.53763440860215,6.64336917562724
524.0,6.468637992831541,6.599462365591398
525.0,6.317204301075268,5.094086021505376
526.0,6.770609318996416,6.509856630824372
527.0,6.901433691756273,7.877240143369175
528.0,7.752688172043011,6.693548387096774
529.0,7.113799283154122,6.380824372759856
530.0,6.701228878648234,6.066282642089094
531.0,7.349308755760368,5.104480286738351
532.0,5.6410138248847925,4.910855094726062
533.0,6.023015873015873,6.95363543266769
534.0,4.897900665642601,8.141833077316948
535.0,5.343983614951357,7.262365591397849
536.0,16.034459805427545,12.623451100870454
537.0,22.977342549923193,21.28714797747056
538.0,21.07603686635945,14.055760368663595
539.0,18.834229390681003,11.051075268817204
540.0,13.137096774193546,9.422939068100359
541.0,9.688172043010752,8.06989247311828
542.0,7.514336917562724,7.019713261648746
543.0,7.067204301075268,7.327060931899641
544.0,6.010752688172042,6.629928315412187
545.0,5.89695340501792,6.530465949820789
546.0,6.938172043010752,5.775089605734767
547.0,5.249103942652329,5.288530465949821
548.0,6.726702508960573,5.704301075268818
549.0,6.235057638283445,4.875690206335368
550.0,5.57541412380122,5.444565533275211
551.0,7.061004552940037,4.719146565920759
552.0,6.396541702993316,4.360021311634215
553.0,6.765475152571927,4.6611934515160325
554.0,6.258064516129032,4.844982078853047
555.0,5.349743983614951,4.507757296466973
556.0,5.046287762416794,4.697875064004096
557.0,5.227444956477215,4.878955453149001
558.0,5.566231438812084,5.082846902201741
559.0,8.425140809011776,5.5145417306707625
560.0,6.620967741935484,5.800179211469533
561.0,6.210880696364567,6.18389656938044
562.0,5.785099846390168,6.294009216589862
563.0,6.6963133640553,5.226753712237583
564.0,7.082923707117255,4.811853558627751
565.0,6.74710701484895,4.631285202252943
566.0,7.280465949820789,4.404121863799283
567.0,6.49709386806161,4.0802818947980235
568.0,6.567543349801414,4.12302625205851
569.0,5.860077358464455,3.7446672478930543
570.0,5.350737603963411,3.5201830863121186
571.0,5.46076306721468,3.784733120216991
572.0,5.778187403993855,3.507885304659498
573.0,5.534254992319508,3.8229390681003586
574.0,5.148745519713261,4.623655913978494
575.0,5.649641577060931,4.724014336917563
576.0,5.81589861751152,6.0569636456733225
577.0,7.096569380440348,5.986815156169994
578.0,5.895442908346134,6.052918586789554
579.0,5.279262672811059,5.979416282642089
580.0,5.164720942140297,5.43594470046083
581.0,5.711853558627752,6.528776241679467
582.0,6.293021131730809,6.336823459404105
583.0,6.019782455266327,5.444909425554586
584.0,6.504514883547142,4.878368691271917
585.0,7.343540083862664,5.176921160792128
586.0,6.739422371680437,4.759607533801082
587.0,5.552022529441884,5.234254992319508
588.0,5.441449052739376,5.094086021505376
589.0,5.5625704045058875,5.043010752688172
590.0,5.217178699436763,4.397644649257552
591.0,5.233589349718382,4.836815156169994
592.0,5.037275985663083,4.55284178187404
593.0,5.586584741423451,4.963722478238607
594.0,6.343394777265744,5.247747055811572
595.0,6.245622119815668,5.200486431131592
596.0,6.252432155657962,5.273169482846901
597.0,6.016077828981055,4.07237583205325
598.0,5.547465437788018,5.9640552995391705
599.0,4.768663594470046,5.532718894009216
600.0,5.826984126984126,6.483205325140808
601.0,4.877547363031233,5.162596006144392
602.0,4.454787506400409,4.480798771121352
603.0,4.504403481822837,4.9462877624167945
604.0,5.684511008704557,5.229365079365079
605.0,7.061341525857655,4.818535586277521
606.0,6.921351766513057,4.927188940092165
607.0,6.878648233486944,4.754019457245263
608.0,6.620071684587813,4.596774193548387
609.0,6.857859703020994,5.321198156682028
610.0,6.626344086021505,5.168663594470045
611.0,6.947132616487455,5.657808499743983
612.0,6.260752688172043,5.407757296466974
613.0,6.013852562239659,5.840115691728595
614.0,5.576511534576051,6.0670624541592275
615.0,5.637513319771385,13.175108288011515
616.0,5.569204688559527,9.299023678055937
617.0,5.461125641770803,15.376662376662374
618.0,5.6050179211469535,10.18305171530978
619.0,5.629032258064516,7.198028673835125
620.0,5.494572452636969,4.886943164362519
621.0,6.514311315924219,4.434511008704558
622.0,5.4583931858125405,4.306643279223924
623.0,5.403479747028134,4.136744578680062
624.0,5.8697762278407435,3.7837076708044446
625.0,5.856547100095487,4.230563512821577
626.0,5.359725162950969,4.157844480425125
627.0,5.89152585765489,5.09984639016897
628.0,6.744598054275474,5.295442908346134
629.0,6.955043522785458,5.1869431643625195
630.0,7.205657270173399,5.238956698634118
631.0,5.676074922849116,4.691866982189563
632.0,5.961245346729218,4.27066467389048
633.0,5.793769114736856,4.200514108578624
634.0,5.677798535863052,4.284396839235549
635.0,6.671530977982591,4.844290834613416
636.0,6.422606246799795,5.0936763952892985
637.0,5.676395289298515,5.373988735279058
638.0,6.58878648233487,5.372401433691756
639.0,5.937980376690055,6.563101811488908
640.0,6.207699865764382,6.659891919569339
641.0,5.184495094172513,5.667311551182519
642.0,5.752206584464648,7.2021145569532665
643.0,6.053522647071034,7.271308174533981
644.0,7.8588837685611885,7.784690220174092
645.0,7.394265232974911,7.196236559139785
646.0,7.313620071684587,7.092293906810036
647.0,7.727598566308243,6.00179211469534
648.0,6.986559139784946,6.310035842293907
649.0,6.5797491039426514,6.204301075268818
650.0,6.466794674859191,6.003814644137225
651.0,6.028648233486942,6.574935995903738
652.0,5.593625192012288,6.446518177163338
653.0,5.76410650281618,6.255965181771633
654.0,4.91699948796723,6.756118791602663
655.0,5.216564260112647,6.189119303635433
656.0,5.599359959037379,6.282642089093702
657.0,5.955145929339478,5.864439324116743
658.0,5.889989759344598,6.7861751152073735
659.0,5.702611367127496,6.086635944700461
660.0,5.54326676907322,5.6335381464413725
661.0,4.636610343061956,5.043497183819764
662.0,4.840706605222734,4.35463389656938
663.0,5.394444444444444,4.390732206861239
664.0,6.118637992831541,4.658704557091654
665.0,6.865488991295442,4.826216077828981
666.0,6.224500768049155,5.394060419866872
667.0,6.038556067588326,4.952201740911418
668.0,5.819457245263696,4.940706605222735
669.0,5.218484383000511,5.35468509984639
670.0,5.713389656938044,5.148668714797747
671.0,7.663389656938044,5.207014848950333
672.0,7.809370199692781,5.097465437788018
673.0,6.9404505888376855,6.318279569892473
674.0,5.932283666154634,6.120276497695852
675.0,5.7183819764464925,5.575371223758321
676.0,5.258166922683052,6.085944700460829
677.0,5.85668202764977,5.8014848950332825
678.0,6.515232974910394,5.303763440860216
679.0,5.658602150537634,4.735663082437276
680.0,7.098566308243727,5.268817204301075
681.0,6.637992831541219,6.413978494623656
682.0,6.468637992831541,5.512544802867383
683.0,7.133512544802867,6.906810035842295
684.0,7.059139784946236,6.094982078853047
685.0,7.655120327700973,5.5644393241167425
686.0,6.940015360983104,5.442165898617512
687.0,5.7195596518177165,6.101459293394777
688.0,6.734331797235023,5.126446492575525
689.0,5.449155145929339,5.460624679979518
690.0,6.318996415770609,6.476702508960574
691.0,5.897849462365592,5.6747311827957
692.0,5.828853046594983,4.46415770609319
693.0,7.670532514080901,5.893958013312853
694.0,7.193241167434715,5.864541730670762
695.0,8.493958013312852,6.484536610343062
696.0,9.319559651817716,6.446569380440348
697.0,8.02268305171531,6.351868919610855
698.0,6.683179723502304,6.356835637480799
699.0,6.31694828469022,7.772503840245776
700.0,5.965847414234511,7.118970814132105
701.0,5.3736047107014855,6.467639528929851
702.0,5.317178699436764,6.489196108550947
703.0,5.796134152585765,6.7401177675371216
704.0,4.9399897593445985,6.8069636456733225
705.0,5.244751664106502,6.582027649769586
706.0,5.338325652841782,6.250691244239631
707.0,6.153481822836662,6.705094726062468
708.0,6.373783922171018,6.164823348694316
709.0,6.673988735279058,8.736328725038401
710.0,6.401510496671786,7.4770353302611365
711.0,5.763781984749727,6.321378752023913
712.0,5.795421458324684,5.984614107194753
713.0,5.87396520944908,5.495891282988057
714.0,6.983628790080403,5.191417223675288
715.0,6.3753269398430685,4.946963092124383
716.0,6.115591397849462,5.472222222222221
717.0,5.816308243727598,5.497311827956989
718.0,5.922939068100359,5.563620071684587
719.0,6.3584229390681,6.025985663082437
720.0,6.913978494623656,6.89336917562724
721.0,7.147849462365591,5.386200716845878
722.0,9.678315412186379,6.331541218637993
723.0,9.616487455197133,6.415770609318996
724.0,7.181027801995544,5.94962704640124
725.0,5.994187736123219,6.019616390584132
726.0,5.574154799961251,5.010704252639736
727.0,5.833672382059479,5.170226678291194
728.0,6.288930405059437,5.061367819432336
729.0,6.55074244751664,5.122759856630824
730.0,6.121249359959037,4.49820788530466
731.0,5.557040450588838,4.363799283154122
732.0,5.114541730670763,5.120071684587813
733.0,5.750358422939068,4.7061187916026626
734.0,5.017204301075269,6.283614951356887
735.0,5.098207885304659,5.673169482846902
736.0,5.2928315412186375,5.435151049667179
737.0,5.150896057347671,5.504761904761905
738.0,5.253584229390681,5.263440860215054
739.0,6.21236559139785,5.560035842293907
740.0,5.316308243727598,5.60931899641577
741.0,6.082437275985663,5.818100358422939
742.0,5.569117504601375,5.371742710452388
743.0,5.909110723626853,4.899133003971714
744.0,6.524895863605542,5.522595175820983
745.0,6.301874455100261,5.480383609415867
746.0,6.453356582388841,5.525138041267073
747.0,7.517921146953404,5.39247311827957
748.0,5.866487455197133,5.793010752688172
749.0,5.800179211469533,5.994623655913978
750.0,6.731182795698924,5.432795698924732
751.0,6.298387096774194,5.235663082437275
752.0,5.564516129032258,5.429211469534049
753.0,5.681003584229391,4.938172043010752
754.0,5.342293906810036,4.620071684587813
755.0,5.860215053763441,4.568100358422939
756.0,4.942652329749104,4.639784946236559
757.0,5.201612903225806,5.326164874551971
758.0,5.977598566308243,5.715949820788531
759.0,6.778673835125448,5.067204301075268
760.0,6.640681003584229,4.123655913978494
761.0,7.206554019457245,4.8317460317460315
762.0,5.823707117255504,5.0144393241167435
763.0,6.946799795186893,5.004531490015361
764.0,8.743113159242192,7.534971838197645
765.0,13.514029697900666,16.174295954941115
766.0,12.812724014336917,10.163082437275985
767.0,9.933183183183182,7.0897268235977915
768.0,9.797684781555748,5.729003196745132
769.0,7.870168555652426,4.568802673641383
770.0,7.8867335077012495,4.629153346895283
771.0,10.531628402596144,4.454809648358035
772.0,8.393490264458006,5.015063450547322
773.0,7.052479899254092,5.791581904485129
774.0,6.657614757614757,5.359206210819114
775.0,6.006323604710701,5.561904761904762
776.0,6.977624167946749,4.977188940092166
777.0,5.79615975422427,4.836712749615975
778.0,6.0334869431643625,4.392780337941629
779.0,6.829800307219662,4.411495135688684
780.0,5.635330261136713,3.8047619047619046
781.0,5.052432155657962,3.207936507936508
782.0,5.533772020868795,3.6899655415784447
783.0,5.748401627433886,3.7154896832316187
784.0,5.06013271335852,4.03695631114986
785.0,5.967611159546642,3.76468911307621
786.0,5.762927443572605,3.3733839830614025
787.0,6.56542187348639,3.1675115207373272
788.0,14.644449287997674,3.248617511520737
789.0,15.852242565145792,3.2027137736815154
790.0,13.192787949239563,3.494956477214542
791.0,9.771403661726243,4.475476398057043
792.0,6.989789789789789,4.870354686483719
793.0,7.575540056185217,5.197850154301767
794.0,7.690995834544221,5.5438175502691625
795.0,7.57712874164487,5.76474031635322
796.0,7.342473118279569,4.487378392217102
797.0,6.093958013312852,3.9294930875576033
798.0,5.230849974398361,3.9412442396313363
799.0,5.4384536610343055,4.142217101894522
800.0,6.898438300051204,4.283922171018945
801.0,6.38873527905786,3.8955453149001533
802.0,7.517921146953405,4.014336917562724
803.0,6.410394265232975,4.150537634408602
804.0,5.428110599078341,4.334434203789042
805.0,4.615488991295443,4.360317460317461
806.0,5.638837685611879,3.743778801843318
807.0,5.220670901316063,3.9956421859647664
808.0,4.619219219219219,3.8311288246772115
809.0,5.061632139051493,3.9502802341512018
810.0,5.520959438701374,5.072810367971658
811.0,5.071834046027594,4.830478404671952
812.0,6.4135688684075784,4.669380440348182
813.0,6.238120839733742,5.445750128008193
814.0,6.0717752314526505,4.847075877721038
815.0,5.255664881471333,4.83143604433927
816.0,6.394550310679342,4.851406706245415
817.0,5.697275155339671,4.618355682871812
818.0,5.656932508545411,4.20088291056033
819.0,7.278238607270865,4.4119303635432665
820.0,6.93594470046083,4.579237071172555
821.0,6.91779313876088,4.8205325140809006
822.0,6.8321044546850995,6.798259088581669
823.0,6.75179211469534,6.663082437275985
824.0,6.990143369175627,7.14247311827957
825.0,6.500896057347671,5.516129032258064
826.0,6.565412186379929,5.113799283154122
827.0,6.601254480286738,5.485663082437275
828.0,7.293906810035842,5.706989247311828
829.0,5.536738351254479,5.871863799283154
830.0,7.560035842293906,8.14874551971326
831.0,7.128136200716845,8.399641577060931
832.0,5.995786108689335,8.219025477089993
833.0,5.93785721205076,9.920444638186574
834.0,7.278964448319286,9.163179308340599
835.0,7.128281507313765,7.80022764700184
836.0,7.284122832509929,7.791242855758984
837.0,6.946236559139785,8.741935483870968
838.0,6.760752688172043,7.455197132616488
839.0,6.56989247311828,6.603942652329748
840.0,5.923835125448028,6.049283154121864
841.0,5.982078853046595,5.723118279569892
842.0,7.301075268817204,5.358422939068101
843.0,6.168458781362007,4.770609318996415
844.0,7.890487261455004,3.9093529012883854
845.0,7.371766928218541,4.431826988278601
846.0,5.967693499951564,4.464569408117795
847.0,6.200692628111982,4.758718395815169
848.0,6.373195776421582,4.576043785721205
849.0,6.464714714714714,5.334229390681004
850.0,5.806461300009687,5.211802355350742
851.0,5.208786205560399,5.29989759344598
852.0,5.467296328586651,5.0917050691244246
853.0,5.4186961154703095,5.85082686373009
854.0,5.433448194738517,5.689468731404215
855.0,7.091634491634491,6.103208508047217
856.0,6.0234158121254895,5.287715365134719
857.0,5.304319065609388,4.573723031787548
858.0,5.919814284330413,6.095347421153873
859.0,7.029133972682359,4.736050566695727
860.0,7.088491717523976,5.331734960767219
861.0,6.142787949239562,5.173931996512641
862.0,7.312263876780005,6.094086021505376
863.0,6.382629634242537,5.9772657450076805
864.0,5.943106931816608,5.929493087557603
865.0,5.155974868878094,6.1868407578085
866.0,5.8347926267281105,6.09521249359959
867.0,5.133794162826421,6.319559651817716
868.0,5.431822836661546,5.845750128008193
869.0,4.991449052739375,6.055043522785458
870.0,6.352150537634408,5.576164874551971
871.0,5.279569892473118,4.670250896057348
872.0,5.9978688365785136,13.584229390681005
873.0,5.888719364525816,18.50448028673835
874.0,6.253947495882979,17.39516129032258
875.0,6.846507798120701,16.5
876.0,5.544318512060447,11.56393490264458
877.0,5.948077109367432,7.620677128741645
878.0,7.052891601278698,6.208636055410249
879.0,6.617843650101714,5.771432723045626
880.0,6.271287416448706,5.090913494139301
881.0,5.633512544802867,5.293010752688172
882.0,5.324295954941116,5.453533026113671
883.0,6.04431643625192,5.2639528929851505
884.0,5.7752944188428055,4.8918330773169485
885.0,6.125235604267862,4.768606163767454
886.0,5.36234898492963,4.675073691202723
887.0,6.92935677613097,5.459144628499467
888.0,5.634481255448998,5.687009590235397
889.0,6.145694081177952,5.922600019374213
890.0,5.606655042138913,4.922164099583455
891.0,6.714617843650101,8.737963770221835
892.0,9.831323258742614,16.79908941199264
893.0,8.772740482417902,11.774096677322484
894.0,8.838709677419356,15.53763440860215
895.0,10.831541218637994,11.21774193548387
896.0,11.512665891698152,19.220333236462267
897.0,9.836530078465563,15.469485614646903
898.0,9.670057153928122,15.769689043882593
899.0,7.947035745422841,11.207425167102587
900.0,7.039378087765185,9.207207207207208
901.0,6.981182795698924,6.465949820788531
902.0,7.750702315218444,5.994914269107817
903.0,6.762447931802771,5.954446381865737
904.0,5.6737866899157225,5.258137169427492
905.0,7.179187251767896,4.907294391165359
906.0,5.926959217281798,4.546837159740385
907.0,6.166666666666666,5.220430107526882
908.0,5.124551971326165,4.717741935483871
909.0,5.469534050179211,5.1657706093189955
910.0,5.24820788530466,4.615591397849462
911.0,4.554659498207885,4.275985663082437
912.0,5.241039426523297,4.293906810035843
913.0,4.976702508960574,4.974014336917563
914.0,5.96505376344086,5.049283154121865
915.0,7.186379928315413,4.437275985663082
916.0,6.412186379928315,4.663978494623656
917.0,6.120967741935484,5.673835125448028
918.0,5.923835125448029,5.542114695340501
919.0,6.0945980542754725,6.138863287250384
920.0,6.440220174091142,5.487890424987199
921.0,6.1981566820276495,5.719303635432667
922.0,7.222503840245776,5.702329749103942
923.0,7.341550767357219,4.521427879492395
924.0,6.035342715987877,4.432449730836828
925.0,5.072330856201823,4.303590456816263
926.0,6.311255033835679,4.852064045612433
927.0,6.483289741354257,3.9938486873970747
928.0,7.0075075075075075,3.762786980528916
929.0,7.791669780379458,3.3585440278988665
930.0,7.02531517692808,3.0596483580354548
931.0,7.019339616113809,3.30052310374891
932.0,5.838837685611879,3.261469534050179
933.0,6.351920122887865,2.960010240655402
934.0,7.19726062467998,3.6395033282130056
935.0,5.632983213628375,2.91835429899946
936.0,6.645779881263753,3.3939441745893357
937.0,6.716259116259116,4.412025850735528
938.0,6.028431657463916,4.9153831250605435
939.0,5.694323355613678,4.367189770415576
940.0,5.00268817204301,3.939964157706093
941.0,5.073476702508961,4.230286738351254
942.0,5.940860215053763,4.17921146953405
943.0,6.09188220478543,4.3610384578126515
944.0,8.34880848590526,4.154533565823888
945.0,8.061949045820015,4.028431657463916
946.0,15.201225418967354,3.533033033033033
947.0,10.48726145500339,3.3337208175917854
948.0,9.64516129032258,2.8835125448028673
949.0,10.732974910394265,3.7867383512544803
950.0,10.38978494623656,3.350358422939068
951.0,8.126344086021504,3.0017921146953404
952.0,14.836917562724015,4.030465949820789
953.0,10.876344086021504,3.6523297491039424
954.0,8.247336045723141,3.857260486292744
955.0,7.266051535406374,5.243351185286668
956.0,6.62720139494333,4.815223979740108
957.0,5.9731231231231225,3.847455058745381
958.0,6.1773321708805575,3.670386515547806
959.0,6.005696018599243,3.403777971519907
960.0,6.1684394071490845,3.2742392161747
961.0,4.750886370241208,3.7177647693776725
962.0,5.349820788530465,3.3310803891449057
963.0,6.299283154121865,2.956989247311828
964.0,6.783154121863799,3.061827956989247
965.0,6.959677419354838,3.0555555555555554
966.0,6.048387096774194,4.299283154121864
967.0,6.197132616487455,7.865591397849462
968.0,5.931387608806963,7.046441372247823
969.0,5.358166922683051,6.05279057859703
970.0,5.689836149513569,5.600768049155146
971.0,7.378597030209933,5.085867895545315
972.0,7.730517153097798,4.714080901177676
973.0,7.070583717357911,4.710035842293907
974.0,7.084126984126984,4.740322580645161
975.0,6.555504352278546,4.6967741935483875
976.0,6.603046594982079,4.295698924731183
977.0,6.416282642089094,3.82921146953405
978.0,6.7466717869943675,4.232258064516129
979.0,5.439196108550947,4.203942652329749
980.0,6.679723502304147,3.9478494623655913
981.0,6.969886937628873,4.1426620168555655
982.0,7.240191804707933,4.367746779037102
983.0,5.943572604862927,4.087547224643998
984.0,4.820736635252764,4.3503148309599915
985.0,5.882142511174768,4.3373437954083105
986.0,6.967226443032894,5.558384190642254
987.0,6.115781680297809,4.913600697471665
988.0,5.6483926322636,4.172750169524363
989.0,5.144216797442604,3.7326116439019668
990.0,5.929187251767897,4.33449578610869
991.0,5.372759856630824,4.25268817204301
992.0,6.270609318996415,5.211469534050178
993.0,7.023297491039427,4.256272401433692
994.0,7.330363543266769,4.566538658474142
995.0,6.309447004608295,5.143036354326677
996.0,6.35857654889913,4.682181259600615
997.0,5.497772657450077,4.557731694828469
998.0,4.760983102918587,4.877880184331797
999.0,6.516897081413211,5.744572452636969
1000.0,5.652713773681516,4.8449564772145415
1001.0,5.376088069636457,4.246850998463902
1002.0,5.809139784946236,4.416666666666666
1003.0,6.25,4.247311827956988
1004.0,5.787634408602151,4.756272401433691
1005.0,4.909498207885305,4.707885304659498
1006.0,5.4267896929187245,4.373268429720042
1007.0,5.925312409183377,5.037440666472925
1008.0,4.89186767412574,5.33413251961639
1009.0,4.7815073137653785,6.151385256223966
1010.0,5.006345054732152,5.481158577932772
1011.0,5.690860215053764,5.256272401433692
1012.0,5.071889400921659,5.559779825908858
1013.0,4.425245291374324,5.786610343061955
1014.0,4.488160280095764,5.362391193036354
1015.0,4.637718132879423,4.815668202764977
1016.0,4.710884156045446,4.6067588325652835
1017.0,5.967218831734961,4.2304147465437785
1018.0,5.689605734767025,5.014848950332821
1019.0,5.151254480286738,5.2654889912954435
1020.0,7.408806963645674,5.527675371223758
1021.0,5.690962621607783,5.502636968766001
1022.0,5.910808735002283,6.063909301006075
1023.0,4.890440209795049,6.207133861972571
1024.0,5.202183750570848,6.185364166009327
1025.0,4.942259310001245,6.455252487510553
1026.0,4.8545397932494705,5.646725066079904
1027.0,6.069815668202764,5.3271889400921655
1028.0,5.788325652841782,4.360522273425499
1029.0,6.303891449052739,4.475448028673835
1030.0,7.289042498719918,4.8681003584229385
1031.0,6.607450076804915,4.348540706605222
1032.0,6.885714285714286,6.0067076292882735
1033.0,5.261648745519714,4.968637992831541
1034.0,5.603533026113672,4.297055811571941
1035.0,5.121658986175115,4.041449052739376
1036.0,5.591295442908345,4.1089861751152075
1037.0,7.468586789554531,5.043292370711725
1038.0,6.470404505888377,5.397542242703533
1039.0,6.235663082437275,5.20568356374808
1040.0,5.693548387096774,5.20768049155146
1041.0,5.802867383512545,5.346671786994367
1042.0,5.948924731182796,4.396902201740911
1043.0,5.688940092165899,4.7167434715821805
1044.0,5.70110087045571,5.002201740911418
1045.0,6.423579109062979,4.252892985151049
1046.0,5.840373783922171,4.232181259600614
1047.0,5.400921658986174,4.195391705069125
1048.0,4.906810035842294,4.439068100358423
1049.0,4.812724014336917,4.28494623655914
1050.0,6.550179211469533,4.708781362007169
1051.0,6.200716845878135,5.353942652329749
1052.0,4.596774193548386,5.334229390681004
1053.0,4.645135688684075,5.260522273425499
1054.0,6.403661034306196,6.663415258576548
1055.0,6.7932646932646925,6.025655609526577
1056.0,6.227277507922669,5.956376191860063
1057.0,6.858601458601459,5.906140241624112
1058.0,6.199807641743126,4.904683024037863
1059.0,5.593631419437871,5.922771619545813
1060.0,5.023929920704114,5.566878399136463
1061.0,4.55676782773557,5.039711601001923
1062.0,5.131043024591412,4.880797387249
1063.0,4.799162065291098,5.215513900997772
1064.0,4.898236946624044,5.1317446478736795
1065.0,4.928630243146372,3.6255933352707546
1066.0,6.741644870677129,3.4454131550905744
1067.0,6.188365785139979,3.8251961639058414
1068.0,5.546449675481933,3.888404533565824
1069.0,6.047418386128063,3.983677225612709
1070.0,5.524581032645548,3.8811149859536953
1071.0,7.201951951951951,4.956117407730311
1072.0,5.803932965223288,5.019277341857986
1073.0,6.9381478252446,5.025767703187057
1074.0,6.921340695534244,5.222512835416061
1075.0,7.595078949917659,4.801995543931028
1076.0,6.20730407827182,4.969437179114598
1077.0,5.4405696018599246,4.983822532209629
1078.0,5.214181923859343,4.629226000193742
1079.0,6.596289838225322,3.833599728761019
1080.0,7.546546546546546,4.413155090574445
1081.0,9.775452872227065,4.076237527850431
1082.0,7.894894894894895,12.781846362491523
1083.0,6.976218153637509,20.926668604087958
1084.0,6.385062481836675,14.25544899738448
1085.0,6.195437372856727,9.398769737479416
1086.0,5.976532984597501,7.372445025670832
1087.0,6.5327424198391935,5.87280829216313
1088.0,9.262351060738157,13.41906422551584
1089.0,10.674392134069553,14.205851012302624
1090.0,10.988181730117214,12.678194323355612
1091.0,13.963140559914752,12.265862636830379
1092.0,11.708248571151795,14.507386418676742
1093.0,8.903855468371596,9.908263101811489
1094.0,6.910515354063741,7.589702605831638
1095.0,6.859827569504988,5.525138041267073
1096.0,6.747263392424683,4.9042429526300495
1097.0,5.630969679356776,5.399423617165553
1098.0,5.797055119635765,5.354112176692821
1099.0,4.665165165165165,5.5693354644967545
1100.0,4.686525234912331,6.008234040492105
1101.0,5.930155962414027,5.8560495979850815
1102.0,5.065920759469146,5.910491136297587
1103.0,4.975418967354451,5.6871548968323165
1104.0,6.186186186186186,5.861498595369563
1105.0,4.9945267848493655,5.322774387290516
1106.0,4.675578804611062,5.078949917659594
1107.0,5.352223190932868,5.353530950305144
1108.0,6.03763440860215,6.287634408602151
1109.0,5.928460718783299,6.143369175627241
1110.0,5.775985663082437,5.323282960379734
1111.0,5.411290322580645,5.780369078756175
1112.0,5.218637992831541,5.723965901385256
1113.0,4.781362007168459,4.9542768575026646
1114.0,4.389276373147341,3.7997190739126223
1115.0,5.947132616487455,3.8485663082437274
1116.0,5.874551971326165,3.5017921146953404
1117.0,4.948924731182796,4.526881720430108
1118.0,4.537489102005232,4.468202073040783
1119.0,4.425554586844909,5.989029351932578
1120.0,5.576576576576576,4.90983725661145
1121.0,6.078610868933449,6.187445510026155
1122.0,6.4721011333914555,6.17257580160806
1123.0,5.950716845878135,6.384408602150538
1124.0,5.830645161290323,5.768817204301076
1125.0,5.587813620071685,5.933691756272401
1126.0,5.57570473699506,6.1685314346604665
1127.0,5.072798605056669,5.967330233459265
1128.0,5.2451806645355035,6.376586263683038
1129.0,5.237382543834157,5.601012302625206
1130.0,5.857938583745035,5.771384287513319
1131.0,6.465586554296232,5.9903128935387
1132.0,5.093456359585392,5.0238302818947975
1133.0,6.08621524750557,4.313668507216894
1134.0,7.116245277535601,4.6307759372275505
1135.0,7.360021311634215,4.144531628402596
1136.0,5.803230650004844,4.337595660176305
1137.0,6.50983241305822,4.794730214085053
1138.0,5.134408602150537,4.47384481255449
1139.0,4.473893248086796,5.449239562142788
1140.0,6.057541412380122,5.474498692240628
1141.0,7.408747457134554,4.699941877361232
1142.0,6.758185604959799,4.445049888598276
1143.0,6.413591010365204,4.277632471180858
1144.0,5.123970744938487,4.281797926959218
1145.0,6.023006877845588,4.877458103264555
1146.0,5.109004165455778,5.371500532790855
1147.0,5.494914269107817,5.341664244890051
1148.0,6.096192967160709,6.5382640705221355
1149.0,6.441393005909135,6.639809164002712
1150.0,6.651845393780878,6.802697859149472
1151.0,5.521263198682553,6.060399108786205
1152.0,5.706625980819529,6.725370531822145
1153.0,5.828078078078078,6.780974522910006
1154.0,6.530562820885401,7.342245471277729
1155.0,5.778213697568535,5.724401821176015
1156.0,6.277777777777777,5.161532500242178
1157.0,6.1127337014433785,4.51319868255352
1158.0,5.985130291581904,4.210452387871743
1159.0,5.721858955729923,3.7499515644676933
1160.0,4.885304659498207,3.4115082824760243
1161.0,5.4743291678775545,3.3946527172333623
1162.0,5.322265814201298,3.1816332461493753
1163.0,4.530756563014627,3.203719848881139
1164.0,4.470357454228422,3.1378959604766057
1165.0,4.391577060931899,3.224910394265233
1166.0,5.152596144531628,3.38472343311053
1167.0,5.273878717427104,4.124261358132326
1168.0,4.883803157996707,3.902184442507023
1169.0,5.2438002518647675,3.9240288675772543
1170.0,4.846362491523782,3.944541315509057
1171.0,4.406180373922309,3.2543107623752787
1172.0,5.75774968516904,3.0836965998256325
1173.0,5.247893054344667,4.147050276082534
1174.0,6.328392909038071,3.1541702993315894
1175.0,6.920468855952727,2.8898091640027124
1176.0,6.757095805482901,3.774459943814782
1177.0,5.9290903807032835,3.4713746004068584
1178.0,5.927685750266395,3.143466046691853
1179.0,5.239537925021796,2.8119732635861667
1180.0,4.665019858568245,2.7536568826891408
1181.0,4.763858789665241,3.308252030832676
1182.0,4.391083710438549,3.5420946291914035
1183.0,5.025290959161927,4.004022224989967
1184.0,4.39074535364858,4.235894189119996
1185.0,4.457674264125877,4.050525179557438
1186.0,4.074596255241417,3.803914974882717
1187.0,4.595566072985427,3.891543847995461
1188.0,5.170440486569518,3.8653187749961946
1189.0,6.513729397600365,3.8145251242025435
1190.0,6.037100233874427,4.211102807877001
1191.0,4.9113138484106225,3.735891421375292
1192.0,4.767932909868394,3.7106876461715173
1193.0,4.413203526106751,4.244744744744745
1194.0,4.418846265620459,3.9824905550712004
1195.0,6.177613096967935,4.153879686137751
1196.0,6.067204301075269,4.475806451612903
1197.0,6.460089121379443,4.493921340695534
1198.0,6.734791242855759,5.085779327714811
1199.0,7.381550905744454,4.310229584423133
1200.0,6.287997675094449,3.7769785914947205
1201.0,5.687009590235396,3.302915819044851
1202.0,5.400755594303981,3.9016758694178044
1203.0,6.703865155478059,4.077690593819626
1204.0,6.349656107720623,4.462026542671704
1205.0,7.9441053957182985,4.1031676838128455
1206.0,7.416497142303593,4.5282863508669955
1207.0,6.44270076528141,4.604814491911267
1208.0,5.157270173399206,3.953526106751913
1209.0,4.559817882398528,4.0067809745229095
1210.0,3.6335851981013265,4.093771190545384
1211.0,5.778262133100843,5.666957279860506
1212.0,7.632616487455197,6.227598566308243
1213.0,6.053448609900222,5.933619102973942
1214.0,4.811222512835416,6.943960089121379
1215.0,5.776179405211663,7.059527269204688
1216.0,6.1586990216022475,6.281555749297684
1217.0,4.6057832025573955,5.225903322677516
1218.0,5.299840162743388,5.187493945558462
1219.0,6.032984597500727,5.177080306112564
1220.0,5.1892618424876495,4.696551390099776
1221.0,4.911387193645258,4.480892182505086
1222.0,4.740191804707933,5.0679550518260195
1223.0,5.06989247311828,4.300179211469533
1224.0,5.051075268817204,4.904121863799283
1225.0,4.114283638477186,5.130654848396784
1226.0,4.004092802479899,4.825438341567374
1227.0,5.427225612709483,4.6878087765184535
1228.0,5.26424004649811,4.422309406180374
1229.0,5.761600309987407,4.5310471762084665
1230.0,6.7487164583938775,4.509202751138234
1231.0,6.278891795020828,4.490046498111014
1232.0,5.680519228906325,4.054272013949434
1233.0,5.696890438825923,3.609125254286545
1234.0,5.142352029448803,4.438971229293809
1235.0,6.577714811585779,4.684321418192386
1236.0,6.909377119054538,4.9797055119635765
1237.0,5.809139784946236,5.413082437275985
1238.0,5.737455197132617,5.364695340501791
1239.0,6.263440860215054,5.264336917562725
1240.0,5.698028673835125,4.932795698924731
1241.0,6.575268817204301,5.406810035842294
1242.0,5.103942652329749,5.405913978494624
1243.0,6.324167946748592,4.59431643625192
1244.0,5.849359959037379,4.808806963645673
1245.0,4.603891449052739,4.752969790066564
1246.0,5.263901689708142,4.493932411674347
1247.0,5.5858886536305885,3.5266450782579817
1248.0,5.439232089232089,3.895119774152032
1249.0,4.854472675440417,3.7302659802659806
1250.0,5.655282932702287,4.3700613055451765
1251.0,6.051293228712583,4.264118957667344
1252.0,4.96810520197617,4.028310568633149
1253.0,4.834859052600988,3.76639542768575
1254.0,4.607793277148115,4.3358519810132705
1255.0,4.43785721205076,4.868642836384772
1256.0,4.079337401918046,5.23457328296038
1257.0,4.4311246730601574,4.858350285769641
1258.0,5.264070522135038,4.283347863993025
1259.0,4.396541702993315,4.414462849946721
1260.0,4.764821272885788,4.9659982563208365
1261.0,5.446478736801318,4.644289450741063
1262.0,5.370531822144725,4.027995737673157
1263.0,5.942458587619877,4.420226678291193
1264.0,6.331492783105686,4.549888598275695
1265.0,5.821708805579773,4.3222173786689915
1266.0,5.694904582001356,3.352416933062095
1267.0,4.56877845587523,4.014918143950402
1268.0,3.8606565090436056,4.673255282932702
1269.0,4.7769329237071165,4.684152585765489
1270.0,5.3438694454823485,5.121004414552801
1271.0,5.9855426855426845,5.241215178311952
1272.0,5.459617220907544,5.355822642919417
1273.0,5.383464109270561,5.47972972972973
1274.0,5.091604046442756,5.259539724055853
1275.0,5.854433235078396,4.968043619656523
1276.0,5.8291471194697,4.876436805469063
1277.0,5.832136283749186,4.242877900942417
1278.0,5.258701097410775,5.57435961306929
1279.0,5.2898216188538765,5.487435822919694
1280.0,6.514134872199388,6.099428460718783
1281.0,6.761624527753559,5.352223190932868
1282.0,6.425796764506441,6.439116535890729
1283.0,7.538482030417514,5.503099874067616
1284.0,6.864138331880268,4.938390002906132
1285.0,5.128620556039911,4.440811779521457
1286.0,5.49128160418483,4.712341373631696
1287.0,5.156519422648454,4.77436307275017
1288.0,5.1647292453744065,4.8356582388840454
1289.0,4.877240143369176,4.425627240143369
1290.0,4.847670250896057,4.513440860215054
1291.0,4.551075268817204,4.542114695340501
1292.0,5.207885304659497,3.869175627240143
1293.0,4.382616487455197,3.518817204301075
1294.0,4.310035842293907,3.816308243727598
1295.0,3.9065284178187403,4.296902201740911
1296.0,3.7390943939331036,4.529626631239534
1297.0,3.3668590249235413,4.248236254687868
1298.0,4.664612308160695,4.495085869279418
1299.0,4.987772103901136,4.733206017076985
1300.0,5.2181052019761704,4.970648067422261
1301.0,5.201467596628887,4.24992734670154
1302.0,7.196163905841325,5.381308728082922
1303.0,6.528189479802382,5.568342536084471
1304.0,5.803854084499246,5.7717032700903665
1305.0,6.155511271640304,5.081640165511134
1306.0,5.131131592421915,4.805859315536734
1307.0,4.513594470046083,4.449718381976447
1308.0,5.130005120327701,3.5949308755760367
1309.0,5.422043010752688,4.095878136200717
1310.0,5.330645161290323,4.514336917562724
1311.0,4.491039426523297,4.564516129032258
1312.0,4.677056088346411,4.419064225515838
1313.0,4.640051341664245,4.013295553618134
1314.0,5.038215634989829,4.254407633439891
1315.0,5.4303981400755585,4.141092705608834
1316.0,5.4284095155062895,4.7390307358049295
1317.0,5.440011209366048,4.727841435905951
1318.0,6.415794135148973,4.743401004691327
1319.0,5.055567318470544,4.922775771162868
1320.0,4.85708473450409,4.546513333610108
1321.0,4.822193160902838,4.252058510123026
1322.0,4.818100358422939,4.387096774193548
1323.0,4.728494623655914,4.411290322580645
1324.0,5.330790467887242,5.76445800639349
1325.0,4.310108495592367,5.438680616099971
1326.0,5.7043979463334304,4.858834641092706
1327.0,5.857066744163518,5.104427007652815
1328.0,6.737673157027995,4.215295941102393
1329.0,6.44270076528141,3.1695001453065967
1330.0,5.676547515257193,4.327133585198101
1331.0,4.91848299912816,4.503293616196842
1332.0,5.889784946236558,4.373655913978494
1333.0,4.929841131454034,4.810907681875424
1334.0,4.1006732538990605,3.773733410830185
1335.0,4.165479996125157,4.207207207207207
1336.0,5.125302722076915,3.390341954858084
1337.0,4.8561229432197175,4.059354285160737
1338.0,4.426753712237583,3.652073732718894
1339.0,6.5950851773432415,3.2468205532721663
1340.0,6.010356208743305,3.2685715669586637
1341.0,5.879185175959369,2.889020356762292
1342.0,5.588491717523976,3.691053957182989
1343.0,5.4967548193354645,3.871064613000097
1344.0,4.548726145500339,3.5497432916787757
1345.0,4.210113339145597,3.0323549355807415
1346.0,4.693209338370629,2.7946333430204398
1347.0,6.432359779133972,2.970769156253027
1348.0,5.595660176305337,3.5996318899544706
1349.0,7.052649423617165,3.425360844715683
1350.0,6.545941102392715,2.6900125932383996
1351.0,7.011333914559721,2.991669088443282
1352.0,5.769592172817979,2.476654073428267
1353.0,4.941998450062966,3.0952484742807322
1354.0,4.644386321805676,3.4306887532693984
1355.0,3.602198973166715,4.335851981013271
1356.0,5.108180761406568,4.308728082921631
1357.0,4.027656688947012,4.114937518163324
1358.0,4.542114695340501,4.319892473118279
1359.0,5.75284178187404,4.635867895545315
1360.0,4.955273937532001,5.1024321556579615
1361.0,5.639375320020481,5.020302099334357
1362.0,5.268249124700738,5.209862858249955
1363.0,5.248371874178326,4.754573006185909
1364.0,5.007749685169039,4.5345829700668405
1365.0,6.1508282476024405,4.7439939939939935
1366.0,5.347457134553908,5.345230483940162
1367.0,5.291039426523298,4.722503840245776
1368.0,5.54336917562724,4.686072708653354
1369.0,5.469664826116439,4.477154343283376
1370.0,6.805172914850333,8.825046705691866
1371.0,8.245955633052407,16.259783977525913
1372.0,9.144241015208756,18.274120895088636
1373.0,7.417998643805095,14.194856146469048
1374.0,5.672817979269592,9.916085440278987
1375.0,5.816695727986051,7.602755981788239
1376.0,6.409425554586845,5.632180567664438
1377.0,7.174198391940327,5.007894991765959
1378.0,6.864428945074106,5.497675094449288
1379.0,6.953138622493461,5.336893344957861
1380.0,6.218056766443864,5.303303303303303
1381.0,8.267703187058025,4.7030901869611546
1382.0,7.324784461881236,5.662791824082147
1383.0,6.496173592947787,5.155768671897705
1384.0,5.591155671800833,5.172478930543447
1385.0,4.814395040201492,4.278891795020828
1386.0,5.7297781652620365,3.523927152959411
1387.0,5.227089993219025,4.007289547612128
1388.0,5.381332945849074,3.81110142400465
1389.0,5.094231328102295,4.216119345151603
1390.0,4.855448997384481,3.6598773889096465
1391.0,4.239891504407633,3.4906962261800967
1392.0,4.594856146469049,3.1915846722298338
1393.0,4.1251152073732715,3.159062980030722
1394.0,5.9187888349178674,3.513429097300065
1395.0,7.0285700446990775,3.097165137487718
1396.0,5.80550366034237,2.8286004898908126
1397.0,6.129018419341,2.8036008358589006
1398.0,6.545820013561949,2.6270948367722564
1399.0,5.673278116826504,4.318875326939843
1400.0,5.343601666182311,4.110747844618812
1401.0,6.039184345635958,4.278940230553134
1402.0,5.511261261261262,4.316792599050663
1403.0,5.84210016468081,4.971568342536084
1404.0,5.436791630340018,4.133585198101327
1405.0,5.775791920953211,4.470405889760729
1406.0,5.633415673738254,4.601690400077496
1407.0,5.531313571636153,5.098784268139107
1408.0,4.576818754238109,5.124576189092318
1409.0,4.687615034389228,4.672672672672673
1410.0,6.472367528819142,4.839920565727017
1411.0,6.5018647679937995,4.4513222900319676
1412.0,6.188656398333817,5.705947883367238
1413.0,4.410951273854499,5.450716845878136
1414.0,4.848106170686815,5.140705221350382
1415.0,5.332945849074881,4.456577545287223
1416.0,5.873462171849269,4.054901675869417
1417.0,5.604184829991282,5.180059091349413
1418.0,4.293131841518939,5.588685459653201
1419.0,3.9307856243340114,5.841422067228519
1420.0,3.6051293228712584,4.637024120895089
1421.0,3.577206238496561,5.169766540734282
1422.0,3.5436161968420032,4.61714133488327
1423.0,3.4873098905356965,4.506151312602926
1424.0,3.5285596656564397,4.3821577337706366
1425.0,3.7889214098891517,4.142691770111124
1426.0,4.0676782773556965,4.895827624859883
1427.0,4.083824608018157,4.990537080859661
1428.0,4.692994838156128,5.101875147036438
1429.0,5.385667925990506,4.9903128935387
1430.0,4.692385934321418,4.511285479027414
1431.0,4.541678775549743,4.859876005037295
1432.0,4.992075946914657,4.206461300009687
1433.0,3.888172043010753,4.542831541218638
1434.0,4.901075268817204,4.587275985663083
1435.0,4.62258064516129,4.52258064516129
1436.0,5.43763440860215,5.216487455197133
1437.0,3.922043010752688,5.145161290322581
1438.0,4.452508960573477,5.017025089605735
1439.0,4.969534050179211,5.329749103942652
1440.0,4.450716845878136,4.57168458781362
1441.0,4.347670250896057,4.957885304659499
1442.0,3.610215053763441,4.878136200716845
1443.0,4.32078853046595,5.256272401433692
1444.0,5.13978494623656,4.372759856630824
1445.0,4.398745519713262,4.805555555555555
1446.0,4.337813620071684,4.581541218637993
1447.0,4.660394265232975,4.937275985663082
1448.0,5.192434369853725,4.610045529400368
1449.0,5.848203041751429,15.513586166811972
1450.0,6.019083599728761,21.14971423035939
1451.0,7.209071975201008,21.440424295263007
1452.0,6.722367528819142,15.595660176305337
1453.0,7.970163712099196,17.618231134360165
1454.0,7.6367335077012495,13.727889179502084
1455.0,9.983095999225032,19.09493364332074
1456.0,10.908335755109949,17.564128644773803
1457.0,13.891310665504214,15.950498885982755
1458.0,15.243194807710937,13.071200232490554
1459.0,14.357260486292745,13.092947786496172
1460.0,12.98115857793277,12.791024895863604
1461.0,14.373195776421582,9.876247214956893
1462.0,12.318245665019857,9.368376440957086
1463.0,11.673011721398819,12.572629080693595
1464.0,10.183812845103166,9.940182117601472
1465.0,8.302310374891018,9.938220478543059
1466.0,8.502228034486098,8.702218347379638
1467.0,7.035818076140657,6.929526300494043
1468.0,13.143805095418,4.580015499370338
1469.0,14.659522425651458,3.689746197810714
1470.0,28.599922503148306,3.991378475249443
1471.0,84.78208854015305,4.19098130388453
1472.0,102.39290903807033,4.1027801995543935
1473.0,60.06563014627531,3.929816913687881
1474.0,34.881114985953694,3.75871839581517
1475.0,20.148309599922502,4.387871742710452
1476.0,21.174852271626463,4.200038748425845
1477.0,20.150343892279377,3.7837353482514775
1478.0,16.45626271432723,3.6731570279957375
1479.0,9.73166715102199,3.972585488714521
1480.0,8.191901578998353,3.7609222125351156
1481.0,12.425603022377214,4.066405114792211
1482.0,10.068003487358325,4.154654654654655
1483.0,7.090865058606993,3.7975636927249834
1484.0,5.878814298169136,3.755255255255255
1485.0,5.083066937905647,4.443306209435241
1486.0,3.988666085440279,5.0473699505957565
1487.0,4.916448706771288,5.036326649229874
1488.0,8.790225709580548,6.689286060253802
1489.0,11.532040104620748,9.86513126029255
1490.0,9.894458975104136,9.091204107333139
1491.0,8.104935580742032,6.6199748135232
1492.0,6.119199845006296,7.358374503535794
1493.0,5.244865833575511,8.750242177661534
1494.0,4.820013561949046,8.284171268042236
1495.0,5.208175917853337,7.524823210307082
1496.0,5.112273563886467,6.958926668604088
1497.0,4.839823694662404,4.454373728567277
1498.0,5.483992056572701,4.08725661145016
1499.0,5.418967354451224,3.692821854112177
1500.0,5.742613581323258,5.586602731764022
1501.0,4.839969001259323,5.071224450256707
1502.0,4.522619393587135,4.621427879492395
1503.0,4.869417804901675,6.306790661629371
1504.0,9.789547612128256,10.653395330814686
1505.0,8.50767703187058,8.191562530272208
1506.0,13.981885110917368,6.473021408505279
1507.0,11.295698924731182,5.808243727598565
1508.0,7.441417223675288,4.268308631211856
1509.0,10.140511479221157,3.2887242080790466
1510.0,9.97609706480674,3.32265329845975
1511.0,8.065557492976847,6.645645645645645
1512.0,7.550881526687977,15.250847621815364
1513.0,16.11779521456941,14.45589944783493
1514.0,15.076818754238108,23.170154024992733
1515.0,27.259420711033616,16.69100552165068
1516.0,19.860893151215734,10.122832509929284
1517.0,14.46139688075172,6.12288094546159
1518.0,10.94352416933062,5.713915528431658
1519.0,9.863218056766444,8.690448513029159
1520.0,7.5327424198391935,12.553593916497142
1521.0,6.693790564758306,13.485130291581903
1522.0,6.242710452387872,8.232103070812748
1523.0,5.49016758694178,6.2444056960186
1524.0,5.410830185023733,4.96013755691175
1525.0,4.892424682747263,24.453913591010366
1526.0,9.058219509832412,14.357260486292743
1527.0,11.702896444831929,9.42458587619878
1528.0,11.032354935580742,7.112031386224935
1529.0,8.120604475443185,5.459265717330233
1530.0,7.673399205657271,3.353773127966676
1531.0,8.676717039620264,4.602344279763634
1532.0,7.767121960670348,3.4624624624624625
1533.0,10.345200038748427,2.92347185895573
1534.0,13.289184345635958,2.4038554683715976
1535.0,12.206868158481061,4.243533856437082
1536.0,9.042405308534342,3.8775065387968612
1537.0,6.889954470599632,4.494817398043205
1538.0,5.044366947592754,3.827811682650392
