time,Engagement,Excitement,Stress,Relaxation,Interest,Focus
136.0,0.0,0.143787,0.0,0.0,0.0,0.0
137.0,0.031814800000000004,0.15315406666666664,0.0218256,0.020385599999999997,0.03381033333333333,0.022076799999999997
138.0,0.06817457142857143,0.1638592857142857,0.046769142857142856,0.04368342857142857,0.07245071428571428,0.04730742857142856
139.0,0.10817032000000001,0.17563502666666664,0.07420704,0.06931103999999999,0.11495513333333333,0.07506112
140.0,0.1508637290322581,0.1882050258064516,0.1034955870967742,0.09666719999999998,0.1603264193548387,0.10468676129032257
141.0,0.19858592903225808,0.2022556258064516,0.1362339870967742,0.1272456,0.2110419193548387,0.13780196129032257
142.0,0.2463081290322581,0.2163062258064516,0.1689723870967742,0.15782399999999996,0.26175741935483876,0.17091716129032258
143.0,0.2940303290322581,0.2303568258064516,0.2017107870967742,0.18840239999999997,0.31247291935483873,0.20403236129032257
144.0,0.3417525290322581,0.24440742580645158,0.2344491870967742,0.21898079999999998,0.3631884193548387,0.23714756129032255
145.0,0.3894747290322581,0.2584580258064516,0.26718758709677415,0.24955919999999998,0.4139039193548387,0.27026276129032256
146.0,0.4371969290322581,0.2725086258064515,0.2999259870967742,0.2801376,0.46461941935483875,0.3033779612903226
147.0,0.4634331935483871,0.279717729032258,0.3160694451612903,0.29549132903225805,0.4894415,0.32079870967741936
148.0,0.47892649032258067,0.28350608387096765,0.3239154322580645,0.30323272258064515,0.5013168709677419,0.3303722322580645
149.0,0.4890483032258065,0.28558406451612894,0.32761268387096776,0.30716794838709677,0.5067188870967743,0.33602214193548385
150.0,0.4964843741935484,0.28680685806451606,0.3292355677419355,0.30920009032258067,0.5088842258064517,0.3397102451612903
151.0,0.5025775741935484,0.2876020580645161,0.3298212677419355,0.31028069032258065,0.5094312258064515,0.3424174451612903
152.0,0.5086707741935483,0.2883972580645161,0.3304069677419355,0.31136129032258064,0.5099782258064516,0.3451246451612903
153.0,0.5147639741935484,0.2891924580645161,0.3309926677419355,0.31244189032258063,0.5105252258064517,0.3478318451612903
154.0,0.5208571741935484,0.2899876580645161,0.3315783677419355,0.3135224903225806,0.5110722258064515,0.3505390451612903
155.0,0.5269503741935484,0.2907828580645161,0.33216406774193546,0.3146030903225806,0.5116192258064516,0.3532462451612903
156.0,0.5330435741935484,0.2915780580645161,0.3327497677419355,0.3156836903225806,0.5121662258064517,0.3559534451612903
157.0,0.5347923612903225,0.2921149354838709,0.3318603709677419,0.31565285806451615,0.5135004258064516,0.3581656774193548
158.0,0.5343689419354839,0.2925226516129032,0.3302334258064516,0.31506630967741933,0.5152282258064516,0.3601304258064516
159.0,0.5328594193548387,0.29286578709677413,0.3282377064516129,0.31420190322580643,0.5171528258064516,0.3619714322580645
160.0,0.5308068451612904,0.2931766322580645,0.32605759999999995,0.31319856774193544,0.5191758258064516,0.3637505677419355
161.0,0.5284827451612903,0.29347133225806454,0.3237853,0.31212576774193546,0.5212480258064516,0.36549876774193546
162.0,0.5261586451612903,0.2937660322580645,0.32151299999999994,0.31105296774193547,0.5233202258064515,0.36724696774193544
163.0,0.5238345451612905,0.2940607322580645,0.3192407,0.3099801677419355,0.5253924258064516,0.3689951677419354
164.0,0.5215104451612904,0.2943554322580645,0.31696839999999993,0.30890736774193545,0.5274646258064516,0.37074336774193545
165.0,0.5191863451612904,0.2946501322580645,0.3146961,0.3078345677419354,0.5295368258064517,0.3724915677419355
166.0,0.5168622451612903,0.29494483225806456,0.3124238,0.3067617677419354,0.5316090258064516,0.37423976774193546
167.0,0.5134520548387097,0.2961913258064516,0.3132624161290322,0.30931941935483864,0.533276735483871,0.37130399354838706
168.0,0.5094988193548388,0.2979137161290323,0.3156564903225806,0.3136922967741935,0.5347422,0.3660262322580645
169.0,0.5052740612903226,0.29987405483870966,0.3188282935483871,0.3189727870967741,0.5361065419354838,0.3595774774193548
170.0,0.500913541935484,0.3019533677419355,0.3223889612903226,0.3247070838709677,0.5374203225806451,0.3525432258064516
171.0,0.4964851419354839,0.3040921677419355,0.3261440612903226,0.3306682838709677,0.5387088225806451,0.3452162258064516
172.0,0.4920567419354839,0.3062309677419355,0.3298991612903226,0.3366294838709677,0.5399973225806451,0.33788922580645164
173.0,0.4876283419354839,0.3083697677419355,0.33365426129032255,0.3425906838709677,0.5412858225806452,0.3305622258064516
174.0,0.4831999419354839,0.31050856774193547,0.3374093612903226,0.3485518838709677,0.5425743225806452,0.3232352258064516
175.0,0.4787715419354839,0.31264736774193547,0.3411644612903226,0.3545130838709677,0.5438628225806451,0.3159082258064516
176.0,0.4743431419354839,0.3147861677419355,0.3449195612903226,0.3604742838709677,0.545151322580645,0.30858122580645164
177.0,0.47751324516129035,0.31649936774193554,0.3479316935483871,0.3650072,0.5455619387096773,0.30853804516129035
178.0,0.4844826,0.3179997677419355,0.3505723419354839,0.36882597419354834,0.5455336129032258,0.3121367741935484
179.0,0.4933515806451613,0.3193937677419355,0.35302724838709676,0.3722876774193548,0.5452858161290323,0.31755645806451616
180.0,0.5031703741935485,0.32073456774193543,0.35538928387096774,0.37557084516129025,0.5449282838709677,0.32388661935483876
181.0,0.5134640741935484,0.32204876774193547,0.35770488387096777,0.37876474516129033,0.5445158838709678,0.33067201935483875
182.0,0.5237577741935484,0.32336296774193546,0.36002048387096774,0.3819586451612903,0.5441034838709677,0.33745741935483875
183.0,0.5340514741935485,0.32467716774193545,0.3623360838709677,0.38515254516129027,0.5436910838709677,0.34424281935483875
184.0,0.5443451741935483,0.3259913677419355,0.36465168387096775,0.3883464451612903,0.5432786838709678,0.35102821935483874
185.0,0.5546388741935484,0.3273055677419354,0.3669672838709678,0.3915403451612903,0.5428662838709677,0.3578136193548387
186.0,0.5649325741935484,0.32861976774193546,0.36928288387096775,0.3947342451612903,0.5424538838709678,0.36459901935483874
187.0,0.5651634096774193,0.32988921935483867,0.36874950322580646,0.3952998612903226,0.5427864645161291,0.36685853548387093
188.0,0.5603628129032259,0.3311362967741935,0.36679163225806455,0.394551335483871,0.543491535483871,0.36685510967741936
189.0,0.5530465,0.3323721870967742,0.3641215161290323,0.3931457387096774,0.5443828516129032,0.3657202129032258
190.0,0.5444723290322582,0.3336024838709677,0.3610952774193549,0.3914116064516129,0.5453672903225807,0.36401958064516127
191.0,0.535269229032258,0.33482998387096774,0.3578909774193548,0.3895132064516129,0.5463982903225807,0.3620360806451613
192.0,0.5260661290322581,0.3360574838709677,0.3546866774193549,0.3876148064516129,0.5474292903225807,0.3600525806451613
193.0,0.516863029032258,0.3372849838709677,0.35148237741935484,0.38571640645161287,0.5484602903225807,0.3580690806451613
194.0,0.5076599290322581,0.3385124838709678,0.34827807741935485,0.3838180064516129,0.5494912903225806,0.35608558064516127
195.0,0.4984568290322581,0.3397399838709677,0.34507377741935485,0.38191960645161294,0.5505222903225806,0.3541020806451613
196.0,0.48925372903225806,0.34096748387096776,0.34186947741935486,0.3800212064516129,0.5515532903225806,0.3521185806451613
197.0,0.48430038387096774,0.3423757322580645,0.3387267516129032,0.3776062129032258,0.5535828451612903,0.3501496870967742
198.0,0.4814719161290323,0.34387435483870965,0.3356148129032258,0.37493292258064514,0.5561116774193549,0.3481880967741936
199.0,0.4797058870967742,0.345418164516129,0.3325182677419355,0.3721304838709677,0.5588901483870968,0.3462301580645162
200.0,0.47847107741935485,0.3469845677419355,0.3294294193548387,0.3692634709677419,0.5617934387096775,0.34427404516129034
201.0,0.4775018774193549,0.34856226774193544,0.3263444193548387,0.36636417096774193,0.5647591387096773,0.3423188451612903
202.0,0.47653267741935484,0.35013996774193545,0.3232594193548387,0.36346487096774194,0.5677248387096774,0.3403636451612903
203.0,0.47556347741935484,0.35171766774193547,0.3201744193548387,0.3605655709677419,0.5706905387096775,0.3384084451612903
204.0,0.47459427741935484,0.3532953677419355,0.3170894193548387,0.35766627096774195,0.5736562387096773,0.33645324516129027
205.0,0.4736250774193549,0.3548730677419355,0.3140044193548387,0.3547669709677419,0.5766219387096774,0.3344980451612903
206.0,0.47265587741935483,0.35645076774193546,0.3109194193548387,0.35186767096774196,0.5795876387096773,0.3325428451612903
207.0,0.4774059548387097,0.36058728064516127,0.312157,0.3547895838709677,0.5797922548387097,0.32577401935483874
208.0,0.4850156709677419,0.3660032,0.31555587096774196,0.36062210322580646,0.5786163290322581,0.3165983806451613
209.0,0.4940552064516128,0.37205882258064515,0.32003538709677415,0.36790992580645165,0.5767501322580646,0.3062193354838709
210.0,0.5038096516129033,0.3784342967741935,0.3250552258064516,0.37592539999999997,0.5745388,0.2952385870967742
211.0,0.5139215516129032,0.3849696967741935,0.33034522580645165,0.38430469999999994,0.5721549,0.28395698709677414
212.0,0.5240334516129033,0.39150509677419354,0.33563522580645155,0.39268400000000003,0.569771,0.2726753870967742
213.0,0.5341453516129032,0.3980404967741935,0.3409252258064516,0.4010633,0.5673870999999999,0.26139378709677413
214.0,0.5442572516129032,0.4045758967741935,0.3462152258064516,0.4094426,0.5650032,0.2501121870967742
215.0,0.5543691516129032,0.4111112967741935,0.3515052258064516,0.41782189999999997,0.5626192999999999,0.23883058709677418
216.0,0.5644810516129032,0.4176466967741935,0.3567952258064516,0.4262012,0.5602353999999999,0.22754898709677418
217.0,0.5729673516129032,0.42198421290322574,0.3631813290322581,0.43209105483870963,0.5611219516129031,0.22805918064516126
218.0,0.5806408516129032,0.4252227870967741,0.3701154838709677,0.4367361870967742,0.563643729032258,0.2344652709677419
219.0,0.5879079516129032,0.4279118903225806,0.37732366451612903,0.44075895806451615,0.5669831193548387,0.24381930967741933
220.0,0.5949718516129032,0.4303262580645161,0.3846688580645161,0.44447054838709676,0.5707313161290322,0.25464732258064515
221.0,0.6019341516129032,0.43260325806451605,0.3920825580645161,0.44802654838709677,0.5746839161290321,0.26621232258064514
222.0,0.6088964516129032,0.4348802580645161,0.3994962580645161,0.45158254838709677,0.5786365161290321,0.27777732258064514
223.0,0.6158587516129033,0.4371572580645161,0.40690995806451613,0.4551385483870968,0.5825891161290322,0.28934232258064513
224.0,0.6228210516129032,0.4394342580645161,0.4143236580645161,0.4586945483870968,0.5865417161290323,0.3009073225806451
225.0,0.6297833516129032,0.44171125806451605,0.42173735806451607,0.4622505483870968,0.5904943161290322,0.31247232258064517
226.0,0.6367456516129033,0.4439882580645161,0.42915105806451603,0.4658065483870968,0.5944469161290322,0.32403732258064516
227.0,0.6370734225806453,0.4414261354838709,0.430939829032258,0.46756203225806453,0.5952104064516128,0.32772918709677423
228.0,0.6340839290322582,0.4364444516129032,0.42991613548387086,0.4684172580645161,0.5943793419354839,0.32748448387096774
229.0,0.6294358032258065,0.4302529870967742,0.42748620967741935,0.4688223548387097,0.592751,0.32527149677419354
230.0,0.6239583612903226,0.4234566322580645,0.42435316774193543,0.4690023870967742,0.5907240193548386,0.32207436774193543
231.0,0.6180662612903227,0.41635783225806444,0.4208685677419355,0.4690698870967742,0.5884977193548386,0.3183851677419355
232.0,0.6121741612903226,0.4092590322580645,0.4173839677419355,0.4691373870967742,0.5862714193548387,0.3146959677419354
233.0,0.6062820612903226,0.40216023225806447,0.4138993677419355,0.4692048870967742,0.5840451193548388,0.3110067677419355
234.0,0.6003899612903226,0.39506143225806445,0.41041476774193547,0.4692723870967742,0.5818188193548388,0.30731756774193547
235.0,0.5944978612903227,0.3879626322580645,0.40693016774193547,0.4693398870967742,0.5795925193548387,0.30362836774193547
236.0,0.5886057612903226,0.38086383225806447,0.4034455677419355,0.4694073870967742,0.5773662193548387,0.29993916774193546
237.0,0.5827137129032258,0.38056121290322575,0.39941407741935486,0.4640065,0.575306164516129,0.29991412258064515
238.0,0.5768216903225807,0.3836566838709677,0.39510914193548385,0.45587141935483877,0.5733292322580644,0.30172115483870965
239.0,0.5709296806451614,0.38845119999999994,0.3906674838709677,0.44636924193548394,0.5713938612903225,0.3044442258064516
240.0,0.5650376774193548,0.39409523870967733,0.3861574645161291,0.4361835161290323,0.5694792709677419,0.3076253161290322
241.0,0.5591456774193548,0.4001640387096773,0.381613264516129,0.42565601612903226,0.5675750709677418,0.31103541612903224
242.0,0.5532536774193548,0.40623283870967736,0.377069064516129,0.41512851612903223,0.5656708709677418,0.31444551612903227
243.0,0.5473616774193548,0.41230163870967734,0.372524864516129,0.40460101612903226,0.5637666709677418,0.31785561612903224
244.0,0.5414696774193548,0.4183704387096774,0.367980664516129,0.3940735161290323,0.561862470967742,0.32126571612903226
245.0,0.5355776774193548,0.42443923870967737,0.363436464516129,0.3835460161290323,0.5599582709677419,0.32467581612903224
246.0,0.5296856774193548,0.43050803870967735,0.358892264516129,0.37301851612903225,0.558054070967742,0.32808591612903226
247.0,0.5232423483870967,0.4343348774193547,0.3567938967741935,0.3651193516129032,0.5556155225806452,0.32499227419354837
248.0,0.5165233548387096,0.4370407354838709,0.3559184451612903,0.35853435483870966,0.5529098,0.3186467612903226
249.0,0.509666529032258,0.4391861032258064,0.3556544516129032,0.35260644193548385,0.5500704903225806,0.3106753129032258
250.0,0.5027407870967742,0.4410512258064515,0.3556961870967742,0.34700707096774197,0.5471643870967742,0.30189089677419356
251.0,0.4957805870967742,0.4427762258064515,0.3558907870967742,0.34157197096774194,0.5442248870967742,0.29269999677419356
252.0,0.48882038709677417,0.4445012258064515,0.3560853870967742,0.3361368709677419,0.5412853870967742,0.28350909677419356
253.0,0.48186018709677414,0.44622622580645155,0.35627998709677416,0.33070177096774195,0.5383458870967741,0.27431819677419356
254.0,0.47489998709677417,0.4479512258064516,0.35647458709677415,0.3252666709677419,0.5354063870967742,0.26512729677419355
255.0,0.4679397870967742,0.44967622580645156,0.3566691870967742,0.31983157096774195,0.5324668870967741,0.25593639677419355
256.0,0.46097958709677417,0.4514012258064516,0.3568637870967742,0.3143964709677419,0.5295273870967743,0.24674549677419355
257.0,0.45849288387096776,0.44394232903225805,0.35709931612903223,0.31442408064516125,0.5285707516129032,0.2470814612903226
258.0,0.45824292903225805,0.43189148387096776,0.35735530967741935,0.3171830451612903,0.5286055483870968,0.2521808580645161
259.0,0.4591113483870968,0.41754466451612904,0.35762153548387093,0.32130768709677415,0.5291360612903226,0.2596619709677419
260.0,0.46053895483870966,0.4020498580645161,0.3578928774193548,0.3261151677419355,0.5299144322580646,0.2683339419354839
261.0,0.4622461548387097,0.3859810580645161,0.3581667774193548,0.33126406774193545,0.5308167322580646,0.2776013419354839
262.0,0.4639533548387097,0.36991225806451605,0.3584406774193548,0.33641296774193546,0.5317190322580646,0.2868687419354839
263.0,0.4656605548387097,0.3538434580645161,0.3587145774193548,0.34156186774193553,0.5326213322580646,0.2961361419354839
264.0,0.46736775483870974,0.33777465806451606,0.3589884774193548,0.3467107677419355,0.5335236322580645,0.3054035419354839
265.0,0.4690749548387097,0.32170585806451607,0.35926237741935485,0.3518596677419355,0.5344259322580645,0.3146709419354839
266.0,0.47078215483870967,0.3056370580645161,0.3595362774193548,0.35700856774193546,0.5353282322580645,0.3239383419354839
267.0,0.4737103612903226,0.29967323870967744,0.35691273225806447,0.35753119677419354,0.5368743,0.3229363225806452
268.0,0.47724907096774194,0.29876190967741934,0.352840464516129,0.35574069032258065,0.5387422516129032,0.31679959354838716
269.0,0.4810930322580645,0.30037682580645164,0.34804383548387097,0.35279361612903226,0.5407711451612903,0.3080955096774194
270.0,0.4850896193548387,0.30325486451612904,0.3428850258064516,0.3492682580645161,0.5428805096774194,0.2981077483870968
271.0,0.48916251935483873,0.30676446451612904,0.3375451258064516,0.3454537580645161,0.5450301096774193,0.2874781483870968
272.0,0.4932354193548387,0.310274064516129,0.3322052258064516,0.3416392580645161,0.5471797096774194,0.27684854838709677
273.0,0.49730831935483877,0.31378366451612905,0.32686532580645156,0.3378247580645162,0.5493293096774194,0.2662189483870968
274.0,0.5013812193548387,0.317293264516129,0.3215254258064516,0.3340102580645161,0.5514789096774193,0.2555893483870968
275.0,0.5054541193548387,0.320802864516129,0.31618552580645165,0.3301957580645162,0.5536285096774194,0.24495974838709678
276.0,0.5095270193548387,0.324312464516129,0.3108456258064516,0.3263812580645161,0.5557781096774194,0.23433014838709676
277.0,0.5120978290322581,0.33021251612903224,0.31034732580645163,0.3267664483870968,0.5563501096774194,0.22917425161290322
278.0,0.5139175935483871,0.3373077935483871,0.3122698258064516,0.32925148387096775,0.5561333096774194,0.2267552064516129
279.0,0.5153618354838709,0.3450006838709677,0.31540272580645157,0.3327864419354839,0.5555221096774193,0.22570458709677418
280.0,0.5166183161290323,0.35299238064516125,0.3191408258064516,0.3368463612903226,0.5547137096774193,0.22533818064516128
281.0,0.5177809161290323,0.36113348064516126,0.32318152580645154,0.3411687612903226,0.5538067096774193,0.22531388064516128
282.0,0.5189435161290322,0.3692745806451613,0.3272222258064516,0.3454911612903226,0.5528997096774193,0.22528958064516127
283.0,0.5201061161290322,0.3774156806451613,0.3312629258064516,0.3498135612903226,0.5519927096774193,0.22526528064516127
284.0,0.5212687161290321,0.3855567806451613,0.33530362580645157,0.3541359612903226,0.5510857096774193,0.2252409806451613
285.0,0.5224313161290322,0.39369788064516126,0.3393443258064516,0.3584583612903226,0.5501787096774193,0.22521668064516126
286.0,0.5235939161290322,0.40183898064516127,0.3433850258064516,0.36278076129032255,0.5492717096774193,0.22519238064516128
287.0,0.5191663225806451,0.40060526774193544,0.34879702903225807,0.36807890322580644,0.5489927354838708,0.22527909999999995
288.0,0.5119436322580644,0.39468414838709676,0.3548946838709677,0.3738649161290323,0.5490277741935483,0.22542132903225803
289.0,0.5033233935483871,0.38641932580645155,0.361335164516129,0.3798948645161291,0.5492198193548387,0.22559131290322582
290.0,0.4940043806451613,0.3769826516129032,0.3679470580645161,0.3860467806451613,0.5494903677419354,0.2257751741935484
291.0,0.48433598064516126,0.3669600516129032,0.3746446580645161,0.3922596806451613,0.5498001677419355,0.22596597419354836
292.0,0.47466758064516124,0.3569374516129032,0.38134225806451605,0.39847258064516133,0.5501099677419354,0.2261567741935484
293.0,0.4649991806451613,0.34691485161290325,0.3880398580645161,0.4046854806451613,0.5504197677419355,0.2263475741935484
294.0,0.45533078064516125,0.3368922516129032,0.3947374580645161,0.4108983806451614,0.5507295677419355,0.2265383741935484
295.0,0.4456623806451613,0.32686965161290316,0.40143505806451607,0.41711128064516134,0.5510393677419354,0.22672917419354838
296.0,0.43599398064516126,0.31684705161290316,0.4081326580645161,0.4233241806451613,0.5513491677419355,0.22691997419354842
297.0,0.43193324229390684,0.31586149247311823,0.4103599268817204,0.431211970967742,0.5515073863799284,0.2298140172043011
298.0,0.43067633476702505,0.31939445376344083,0.41035203010752686,0.43993720645161294,0.5515898143369176,0.23405968172043012
299.0,0.43082134265232974,0.32518667526881717,0.40922655053763446,0.44908116451612906,0.5516343469534051,0.23898115698924732
300.0,0.43166730824372757,0.33210852688172043,0.4075422795698925,0.45843448387096775,0.5516599318996416,0.24424053763440862
301.0,0.432863752688172,0.3395951935483871,0.40557861290322583,0.4678924838709677,0.5516760430107527,0.24966887096774193
