time,emg_right_hand,emg_left_hand
0.0,9.19047619047619,12.857142857142858
1.0,8.396825396825395,9.456445993031359
2.0,7.612576738012278,7.56495769039323
3.0,10.394812233836625,10.372590011614403
4.0,12.345876887340303,10.01254355400697
5.0,10.325780225544193,8.104582068862163
6.0,10.337083661159195,8.882031396350829
7.0,9.197180697613428,9.928977932636467
8.0,11.875537634408602,11.09304915514593
9.0,8.6252688172043,10.461443932411674
10.0,11.92016129032258,8.09516129032258
11.0,10.124803304484658,7.543410700236034
12.0,8.223288749016522,8.642269866247048
13.0,8.277773406766325,8.071538158929975
14.0,11.763886703383163,10.380527143981116
15.0,8.723878835562548,13.574940991345398
16.0,9.026612903225807,11.589516129032258
17.0,9.158870967741935,10.733870967741936
18.0,10.403225806451612,10.740322580645163
19.0,8.586290322580645,11.850806451612904
20.0,7.358064516129033,11.866935483870968
21.0,8.522580645161291,10.25725806451613
22.0,10.50786782061369,12.547639653815892
23.0,15.503520849724627,12.44665617623918
24.0,16.148288749016523,14.37322974036192
25.0,13.640184893784422,14.13035011801731
26.0,12.754366640440598,12.409126671911881
27.0,10.80991345397325,14.930763178599527
28.0,11.137207298340265,14.996759207223409
29.0,8.072144168446293,13.27965419055112
30.0,10.254010715222359,13.39081057285227
31.0,6.9634333670525645,15.474467048817953
32.0,6.614368139073096,13.715203626690645
33.0,7.092053501180173,11.480566483084186
34.0,10.027222659323368,10.480487804878049
35.0,7.96215578284815,8.790047206923681
36.0,9.46927616050354,9.276612903225807
37.0,9.135444531864673,9.604032258064517
38.0,7.746754523996852,9.862903225806452
39.0,9.456153759694278,9.692933947772657
40.0,11.654080026975386,8.6311640627927
41.0,14.566221760143868,6.193630811884155
42.0,12.523030234910644,5.5806863736840135
43.0,11.77119253681016,4.782278670712975
44.0,12.90535011801731,12.585287175452397
45.0,11.356687647521635,14.18957513768686
46.0,10.634846015510846,10.263009066726612
47.0,10.2245466636694,7.555755685437038
48.0,13.220111648121087,12.96309617474055
49.0,8.73219437263497,26.827919523434865
50.0,13.69772582518452,51.93598965943576
51.0,11.27881682964295,49.15731894646135
52.0,15.979626091191786,74.16200217301711
53.0,13.660151361882281,43.5518901502379
54.0,11.049409913453973,26.266129032258064
55.0,10.17537372147915,17.850609756097562
56.0,9.778127458693941,13.635719905586154
57.0,12.076317859952791,10.18804091266719
58.0,11.85759244689221,8.646734854445318
59.0,13.498819826907948,11.199842643587726
60.0,13.228953579858379,9.820613690007868
61.0,10.54209284028324,8.642800944138473
62.0,9.706530291109363,8.623918174665619
63.0,11.58174665617624,9.12336742722266
64.0,11.90731707317073,9.515656963021243
65.0,11.55279307631786,8.749173878835562
66.0,13.181963957888426,8.283357686111422
67.0,10.800659398299052,7.413905436289386
68.0,10.48396463227305,8.072196620583716
69.0,8.772352103705368,8.532479112809561
70.0,7.62879997002735,8.505421303060956
71.0,8.236742722265932,9.262863886703382
72.0,10.588709677419354,9.028048780487804
73.0,10.30261605035405,9.785857592446892
74.0,10.041227380015734,9.173170731707316
75.0,9.171675845790716,8.308143194335168
76.0,8.788670338316287,9.825826121164436
77.0,11.052399685287174,14.385090479937057
78.0,11.416129032258063,11.24274193548387
79.0,9.409677419354837,9.418548387096774
80.0,11.96532258064516,8.266129032258064
81.0,9.253225806451612,7.989516129032259
82.0,8.812096774193549,7.849193548387097
83.0,10.423387096774192,8.037903225806453
84.0,6.665322580645161,8.721774193548386
85.0,8.095161290322581,7.89758064516129
86.0,8.302419354838708,6.906451612903226
87.0,8.349193548387097,10.304032258064517
88.0,8.260739575137688,10.193233674272225
89.0,8.713434303697875,10.0683910306845
90.0,8.807120377655389,10.442663257277733
91.0,10.164044059795437,10.376573564122738
92.0,10.043312352478363,10.092722265932338
93.0,12.178225806451614,10.291129032258064
94.0,11.388287250384025,9.950153609831029
95.0,11.563095238095237,8.879915514592934
96.0,9.775460829493088,7.999347158218126
97.0,8.638133640552995,11.968625192012288
98.0,11.381566820276497,12.847619047619048
99.0,13.610983102918587,12.255760368663594
100.0,12.295007680491551,11.174654377880184
101.0,10.365322580645161,11.303225806451612
102.0,9.950806451612902,11.436290322580644
103.0,8.914378442171518,11.905940204563336
104.0,6.38501180173092,11.017486231313926
105.0,9.053796223446104,11.579307631785994
106.0,9.461978756884342,12.613847364280094
107.0,12.294295830055074,9.21498819826908
108.0,11.191129032258065,9.284677419354837
109.0,12.791935483870967,8.375
110.0,13.244236821400472,9.028147128245475
111.0,13.038151436813905,9.837364654752538
112.0,13.251982878123712,10.77627477426848
113.0,10.568752575774607,9.97918961447679
114.0,14.839234198793601,9.070585590648532
115.0,13.835656213704993,10.19053238919486
116.0,10.718519351092128,9.96047356786932
117.0,9.320707354538984,8.470008617136862
118.0,10.403057210295605,8.319028886141396
119.0,10.482941815593271,7.524952231089131
120.0,11.976033119778203,8.019542167771908
121.0,11.333792289535797,7.039417781274587
122.0,11.471774193548388,6.979032258064516
123.0,12.133064516129032,8.247580645161289
124.0,9.337096774193547,9.743548387096773
125.0,9.44516129032258,11.145967741935483
126.0,11.403225806451612,16.454032258064515
127.0,10.535483870967742,15.999193548387098
128.0,8.765322580645162,14.053225806451612
129.0,13.32016129032258,12.408870967741937
130.0,14.052419354838708,9.900806451612903
131.0,13.609893784421715,11.782710464201415
132.0,11.757769472856019,10.561113296616837
133.0,12.309185680566483,9.706589299763966
134.0,11.813709677419354,10.079976396538159
135.0,10.530133752950432,10.369040125885128
136.0,12.192420666142144,10.551685024914764
137.0,10.55588775242591,9.831890899554157
138.0,10.020666142145291,11.355363231051665
139.0,9.015128695065751,10.682495972425162
140.0,10.352643213068074,12.679358210632799
141.0,11.65029223333708,10.130329511820463
142.0,11.798808587164213,11.300363418380726
143.0,9.836068337641901,13.073077067176202
144.0,10.980630174965343,11.72048630624555
145.0,8.852871754523996,9.981229627964483
146.0,11.656963021243115,8.983140384399235
147.0,9.790903300738076,11.739125547937507
148.0,8.909535049267543,13.244071035180397
149.0,10.906380427859578,11.861436439249184
150.0,10.390247649020267,10.905541193660785
151.0,10.828876774942863,9.365044396987749
152.0,10.729799370574352,11.572383949645948
153.0,8.525786782061369,12.748288749016522
154.0,8.23341950470196,12.042366340714098
155.0,8.566355700423363,11.639593870593085
156.0,8.405129069723877,10.514918886516053
157.0,7.829638267580832,9.88894945861901
158.0,9.22505713536398,8.1561387733693
159.0,9.945374845453525,8.326814281967705
160.0,10.820838484882545,7.809748604398487
161.0,7.9794125360608446,8.829474354651381
162.0,9.472930950507662,8.178075006556517
163.0,13.064553594844705,9.306582743246786
164.0,13.083511295942452,10.057060432355474
165.0,11.478925480499043,10.402026900453336
166.0,12.138061518864035,10.065227979468734
167.0,9.531452549548536,8.80581469409164
168.0,8.125679067850585,9.448147315574538
169.0,11.814068412573526,9.712168895882506
170.0,10.316526169869995,8.385448278445917
171.0,11.186081450676259,8.213948521973698
172.0,9.910526020006744,9.436064591060656
173.0,9.538740586714622,8.83903937656888
174.0,7.932066988872653,10.250361545090104
175.0,11.37634033944026,10.22116818403207
176.0,8.262942564909519,9.574822974036191
177.0,13.180094413847364,9.571911880409125
178.0,15.922423288749018,9.876317859952792
179.0,14.035247836349331,10.40251770259638
180.0,11.529976396538158,10.367427222659323
181.0,12.091345397324941,11.22077104642014
182.0,9.487608182533439,12.758772619984263
183.0,8.899193548387096,13.235483870967741
184.0,10.12741935483871,11.150806451612903
185.0,10.631451612903225,10.131451612903225
186.0,13.915322580645162,9.414516129032258
187.0,11.912096774193548,10.143548387096773
188.0,10.371774193548386,11.00725806451613
189.0,9.47983870967742,10.76290322580645
190.0,7.9161290322580635,10.70483870967742
191.0,12.599193548387097,11.59758064516129
192.0,58.644354838709674,11.634677419354837
193.0,79.03790322580645,8.721774193548388
194.0,55.36612903225806,9.198387096774193
195.0,34.52016129032258,12.247580645161289
196.0,25.833064516129028,12.272580645161291
197.0,17.230173092053498,10.870495672698663
198.0,10.66992525570417,9.519118804091267
199.0,9.111863549511071,10.08390656026376
200.0,10.822080476565134,9.770061069274288
201.0,13.241429695402946,9.910876325353115
202.0,10.853208946836013,8.653707242141545
203.0,8.56153759694279,7.8091116855869025
204.0,8.37686860739575,9.952006294256492
205.0,8.089063729346972,8.639968528717546
206.0,7.597639653815893,11.705114083398897
207.0,9.144610542879622,10.596695515342251
208.0,11.219197482297403,12.256412273800157
209.0,11.787096774193547,10.54032258064516
210.0,12.953363493312352,9.909264358772619
211.0,12.58998819826908,9.415519276160502
212.0,11.065558615263571,9.433162863886702
213.0,13.102537372147914,9.282710464201415
214.0,11.063768686073956,14.34256490952006
215.0,11.268548387096775,12.06774193548387
216.0,10.523387096774194,11.332258064516129
217.0,11.10725806451613,9.423387096774194
218.0,10.962096774193547,9.091129032258065
219.0,8.753225806451614,7.244354838709677
220.0,9.3,8.845161290322581
221.0,9.910483870967742,7.62016129032258
222.0,13.567112509834775,7.691050354051927
223.0,21.47145948072384,6.994315499606609
224.0,22.562785208497246,9.659697088906373
225.0,21.628627627290097,10.10563579483721
226.0,15.831426323479825,9.894861563823012
227.0,16.27974972837286,13.068108163800531
228.0,14.212993143756322,12.243827507399498
229.0,12.045914353152748,11.855588025926343
230.0,12.429470608070137,11.837922895357986
231.0,11.541249859503203,12.448859166011015
232.0,12.411749278783109,10.032838784609044
233.0,10.143509047993707,11.208969315499605
234.0,10.763808025177026,9.896616837136113
235.0,12.01014948859166,10.190558615263573
236.0,12.710975609756098,11.621872541306058
237.0,9.855645161290322,12.935483870967742
238.0,8.437096774193549,12.358870967741936
239.0,7.596774193548387,13.82016129032258
240.0,9.675,11.385483870967741
241.0,8.158064516129032,11.301612903225806
242.0,11.446774193548386,10.404838709677419
243.0,10.091188040912666,11.104937057435091
244.0,9.940755310778913,9.60609756097561
245.0,8.057474429583005,10.683693941778127
246.0,9.931156569630211,9.366443745082613
247.0,10.460739575137687,10.6566089693155
248.0,7.903225806451612,8.776612903225807
249.0,10.479032258064516,8.834677419354838
250.0,10.285483870967742,11.983870967741936
251.0,9.651612903225807,9.615322580645161
252.0,11.62741935483871,8.370967741935484
253.0,14.575531077891423,9.107179386309992
254.0,14.858595594020455,9.596911880409127
255.0,13.235365853658536,9.465637293469708
256.0,11.946911880409125,11.904228953579857
257.0,10.161290322580644,15.389457120377655
258.0,12.004720692368213,12.132179386309993
259.0,10.404405979543666,14.887115507099772
260.0,10.126671911880408,11.947885054887415
261.0,10.82769472856019,10.256153759694278
262.0,9.417781274586938,8.467573339327863
263.0,8.059008654602675,9.89350342812184
264.0,9.64778389719381,9.667565846165374
265.0,10.16535536323105,10.214585440785283
266.0,8.912929451875163,10.052114945112585
267.0,9.565748754261737,9.880109400172344
268.0,12.476029373196956,11.581675471132591
269.0,12.586939417781274,13.686152635719905
270.0,14.480330448465775,14.46266719118804
271.0,13.411447678992918,13.69175845790716
272.0,12.825885129819039,13.748701809598742
273.0,13.848033044846579,12.816915814319433
274.0,10.194413847364281,13.672187254130606
275.0,10.639299763965383,9.324291896144768
276.0,9.006132216852123,13.610437038702184
277.0,10.205312652204864,10.480199318122214
278.0,11.326589487093027,10.38106477838972
279.0,8.393428496496947,12.039548911618148
280.0,11.351766513056836,10.112596006144393
281.0,11.051305683563747,7.118586789554531
282.0,10.038095238095238,5.579493087557603
283.0,9.739159267168708,5.9212702783709865
284.0,7.059390805889626,6.742411299689033
285.0,7.2819995504102515,6.816674159829156
286.0,7.714386871979319,6.909143531527481
287.0,8.733235922220974,10.021782623356188
288.0,5.6192536810160725,9.565887377767787
289.0,6.467455322018658,10.025587276610093
290.0,7.918115656963021,9.508438237608182
291.0,8.974783634933123,11.01671911880409
292.0,7.349783634933123,9.301042486231314
293.0,7.7096184107002355,10.836978756884342
294.0,9.654878048780487,10.588276947285602
295.0,9.361034618410699,9.330802517702597
296.0,9.229307631785996,10.040401258851299
297.0,8.5360346184107,14.122580645161293
298.0,10.271164437450826,11.181274586939418
299.0,10.937785208497246,7.617387883556255
300.0,18.5999409913454,14.555468135326514
301.0,18.868922108575923,14.174508261211644
302.0,15.631549960660896,18.940833988985048
303.0,12.049999999999999,18.26451612903226
304.0,12.56048387096774,12.599193548387095
305.0,13.14274193548387,11.81774193548387
306.0,13.041935483870969,10.55241935483871
307.0,11.420161290322582,8.638709677419355
308.0,14.810483870967742,7.756451612903225
309.0,14.144020456333596,6.58756884343037
310.0,17.773623131392604,7.472010228166797
311.0,13.333182533438238,9.880763178599526
312.0,11.978284815106214,15.739575137686858
313.0,10.655271439811171,20.011723052714395
314.0,11.102616050354051,17.584146341463416
315.0,13.832907159716758,13.275767112509836
316.0,11.60038215128695,11.663843617698848
317.0,13.964707204675733,10.987566970139747
318.0,12.861309055486867,8.748199767711963
319.0,10.348426653701752,8.191538999732511
320.0,11.122866430893437,7.060457971635765
321.0,11.001909405922909,6.48837030686243
322.0,8.128335655342408,7.004822634229986
323.0,10.806487336119744,8.967849105133427
324.0,12.4147465437788,9.874807987711215
325.0,12.606605222734256,9.859600614439323
326.0,10.647847589074967,10.522265932336742
327.0,10.136903825259452,10.622116069086957
328.0,10.529281405717283,10.486828893634558
329.0,10.306038552321006,9.225826121164438
330.0,10.017938630999211,9.927025963808024
331.0,8.803225806451612,10.41150668764752
332.0,13.280645161290321,8.685995279307633
333.0,13.275806451612903,7.724193548387097
334.0,9.944354838709677,7.474193548387097
335.0,12.813709677419354,9.54032258064516
336.0,12.167741935483871,12.362096774193548
337.0,11.724193548387095,12.905645161290323
338.0,16.21693548387097,11.774193548387096
339.0,13.287175452399685,10.528619197482296
340.0,11.529071597167583,11.000196695515342
341.0,12.548406766325726,10.728324154209282
342.0,13.818469708890637,12.527321007081039
343.0,13.337825484245625,10.40726649432393
344.0,11.92933760443595,12.998283129144657
345.0,13.398654977333182,13.56444494398861
346.0,13.47390506163126,12.595893746955902
347.0,15.552246075456146,11.449908208759506
348.0,14.0228166797797,10.41156194972088
349.0,13.287175452399685,9.577535498857292
350.0,11.215072496347084,9.459124798621257
351.0,12.034187553857105,10.323187591322917
352.0,13.888906372934695,11.445003933910307
353.0,11.06522423288749,11.868607395751376
354.0,10.769433516915814,11.933123524783634
355.0,11.763473642800944,9.645790715971675
356.0,13.016011014948859,14.83579858379229
357.0,9.995102281667977,11.203383162863886
358.0,10.64311565696302,9.44362706530291
359.0,9.861290322580645,11.394354838709678
360.0,10.52016129032258,10.196774193548388
361.0,12.037096774193547,9.012096774193548
362.0,13.308064516129033,8.265322580645162
363.0,13.028225806451612,7.838709677419354
364.0,11.918469708890637,9.344492525570416
365.0,12.22979937057435,9.250472069236821
366.0,12.253147128245475,9.377321007081038
367.0,13.275767112509834,9.483418568056647
368.0,11.065302911093626,10.531628638867033
369.0,10.336124536360572,8.333814769023267
370.0,11.637417106889963,9.348358997414858
371.0,10.126733730470946,10.526264471170057
372.0,9.289055299539172,12.22201303810273
373.0,7.898668090367539,12.245762616612343
374.0,7.15493705743509,12.932592446892212
375.0,7.825334382376081,11.25963808025177
376.0,8.278520849724625,11.988198269079465
377.0,11.389457120377655,10.618410700236034
378.0,15.067663257277735,9.366640440597955
379.0,14.202989771833202,9.809284028324154
380.0,11.20456333595594,9.860582218725412
381.0,12.300157356412274,11.07411487018096
382.0,10.237018095987413,13.253422501966956
383.0,11.343135326514556,10.975255704169946
384.0,10.784815106215577,10.620456333595593
385.0,11.014673485444533,9.382769472856019
386.0,10.492682926829268,10.22077104642014
387.0,9.643273013375296,9.585208497246262
388.0,10.65656963021243,9.284815106215579
389.0,12.740165224232888,10.443745082612116
390.0,17.570889063729346,13.308969315499606
391.0,13.683556254917388,12.039614476789929
392.0,12.842092840283241,13.18841463414634
393.0,8.41014948859166,12.416404405979543
394.0,8.286113296616836,11.837627852084971
395.0,6.506530291109362,12.082100708103855
396.0,10.96294256490952,12.035542879622344
397.0,10.46341463414634,11.403619197482298
398.0,10.702596380802518,10.500393391030684
399.0,11.535798583792289,9.965381589299763
400.0,9.321007081038553,9.90558615263572
401.0,7.624704956726987,9.216365066876474
402.0,10.065415308530966,12.162376831141582
403.0,11.405642351354388,11.19999250683751
404.0,10.251208272451388,9.689296017384137
405.0,11.167696976508935,13.181784121988686
406.0,10.866022254692593,13.284196920310215
407.0,11.13656288636619,14.834850698737402
408.0,12.891648870405756,14.314750290360045
409.0,13.913566370686748,13.772245326139897
410.0,13.24749915701922,12.235060507287102
411.0,12.494256490952004,11.800786782061369
412.0,14.346498819826907,10.733595594020457
413.0,17.802517702596383,8.991266719118805
414.0,12.666404405979545,8.67816679779701
415.0,11.342250196695517,10.25647128245476
416.0,11.108221872541307,14.543961447678992
417.0,11.592014162077103,11.77077104642014
418.0,11.211329661683713,11.339417781274587
419.0,9.480566483084186,11.42918961447679
420.0,8.73225806451613,15.730645161290322
421.0,10.796774193548387,12.184677419354838
422.0,10.053225806451612,11.211290322580645
423.0,14.39516129032258,9.921774193548387
424.0,11.085483870967742,8.789516129032258
425.0,11.529032258064515,6.966129032258065
426.0,12.835483870967742,7.970967741935484
427.0,10.575806451612902,8.259677419354839
428.0,10.43467741935484,8.466935483870968
429.0,13.788709677419355,9.140322580645162
430.0,14.780645161290323,8.983064516129032
431.0,11.291935483870969,8.888709677419355
432.0,12.67258064516129,10.073387096774194
433.0,13.043548387096774,12.84516129032258
434.0,12.330251770259638,14.88845397324941
435.0,11.473996852871753,12.1809205350118
436.0,10.936998426435876,10.748524783634933
437.0,14.896321793863098,9.813375295043272
438.0,10.975177025963808,9.18733280881196
439.0,8.847541306058222,9.208536585365852
440.0,10.796007081038553,9.348780487804877
441.0,11.31442059121052,10.459874114870182
442.0,10.95748566932674,9.08872934697089
443.0,11.44205912105204,9.614476789929189
444.0,12.370124761155445,9.21164437450826
445.0,13.141789367202428,12.646341463414634
446.0,12.51140833988985,11.034618410700237
447.0,10.96498819826908,11.132572777340677
448.0,9.950550747442959,10.73245476003147
449.0,8.647895357985838,10.707690794649881
450.0,8.254996066089692,9.691345397324941
451.0,8.955271439811172,9.634579071597166
452.0,9.331451612903225,7.244354838709677
453.0,10.133064516129032,7.004032258064516
454.0,8.54516129032258,7.15
455.0,8.410247836349331,8.15214398111723
456.0,10.680527143981116,7.199055861526357
457.0,11.519295830055075,6.627753737214792
458.0,9.62295436664044,6.635247836349331
459.0,8.05381589299764,8.501494885916602
460.0,9.893548387096775,8.670967741935485
461.0,9.707258064516129,9.704032258064515
462.0,8.720161290322581,10.470967741935484
463.0,8.066129032258065,11.541129032258064
464.0,8.850334382376081,10.212234461054289
465.0,10.431215578284814,9.531117230527144
466.0,10.234559402045633,10.813945712037764
467.0,10.693489378442171,10.118666404405978
468.0,11.09795436664044,9.555704169944924
469.0,10.380212431156568,10.223170731707317
470.0,10.308910306845004,11.955468135326514
471.0,13.28859166011015,12.707061369000787
472.0,13.114303510546627,12.676898580045709
473.0,10.038200142370087,10.527158967442208
474.0,9.921381739163014,9.153429995129445
475.0,11.14306695140684,10.422899104567083
476.0,8.280030721966206,10.827342549923195
477.0,6.42258064516129,10.54032258064516
478.0,8.472069236821401,10.761742722265932
479.0,6.3360346184107,13.279661683713611
480.0,5.885759244689221,14.15354051927616
481.0,8.475944138473643,10.210641227380016
482.0,9.489181746656175,10.92588512981904
483.0,8.550806451612903,10.758064516129032
484.0,14.269354838709678,9.734677419354838
485.0,13.404838709677417,8.110483870967743
486.0,11.249193548387096,7.345161290322581
487.0,9.27741935483871,10.11774193548387
488.0,11.26290322580645,8.745967741935484
489.0,10.555645161290322,8.34516129032258
490.0,14.961014948859164,7.374488591660111
491.0,13.329854632647708,7.9437151099621595
492.0,9.814389681915252,6.7384858191899895
493.0,12.576716870855343,9.479992319508447
494.0,13.018657974598177,10.19047619047619
495.0,10.442845903113408,9.44810984976209
496.0,11.239856131280206,11.739799932561539
497.0,10.767187441459669,10.699074594432581
498.0,12.023247536622833,8.604061294069162
499.0,8.536585365853657,8.539357835974673
500.0,10.769866247049567,11.016335094226518
501.0,10.805477501779627,14.600164849574762
502.0,11.218238357498784,14.069948671836947
503.0,10.52941815593271,13.559443258027049
504.0,10.198426435877261,14.874114870180959
505.0,8.718804091266719,16.323367427222657
506.0,51.26498819826908,27.030291109362707
507.0,52.734301680485785,33.427812745869396
508.0,34.42696594645847,29.926003147128245
509.0,24.20501523129375,21.583162863886702
510.0,16.62807803264137,15.076789929189616
511.0,12.64920817446388,10.95255704169945
512.0,11.252478363493312,9.531117230527144
513.0,10.203343823760818,8.613709677419354
514.0,9.96215578284815,8.130645161290323
515.0,9.455900865460269,7.887903225806451
516.0,14.094885916601102,7.715322580645161
517.0,11.942066614214529,9.487019969278034
518.0,12.970246525045896,10.916995429170882
519.0,12.293207448203514,11.437716833389532
520.0,11.395777602937319,11.582037016222696
521.0,9.089824285339628,11.540212056498445
522.0,12.052714398111723,11.002675059008656
523.0,12.197875688434303,11.094964594807237
524.0,14.23347757671125,9.787844217151848
525.0,15.748190401258851,10.745535011801731
526.0,12.806766325727773,10.451298190401259
527.0,11.564280094413848,11.464044059795437
528.0,9.673564122738,11.190715971675846
529.0,11.525609756097559,8.780251770259639
530.0,11.939417781274585,10.459480723839498
531.0,10.070023603461841,9.387883556254916
532.0,10.405192761605036,9.806058221872542
533.0,11.469708890637293,8.880999213217939
534.0,10.949346221572814,10.56705912105204
535.0,9.641274212281292,10.073016185230976
536.0,11.598666217076918,9.471057659885354
537.0,12.95035779850886,10.148626877973848
538.0,12.701142707279605,11.654171818215877
539.0,9.806638941965456,10.625933835375221
540.0,10.857135363980369,9.918474392117194
541.0,8.799692780337942,10.06804915514593
542.0,8.803225806451612,9.272580645161291
543.0,9.181451612903226,9.858870967741936
544.0,9.135483870967743,11.30241935483871
545.0,9.34516129032258,11.218548387096774
546.0,9.579838709677418,9.98709677419355
547.0,8.064516129032258,10.50725806451613
548.0,9.812096774193549,10.167741935483871
549.0,10.076612903225806,9.383064516129032
550.0,8.779838709677419,10.629032258064516
551.0,11.123387096774191,11.379032258064516
552.0,11.674193548387098,10.06774193548387
553.0,10.296774193548387,8.604032258064516
554.0,10.233870967741936,9.296774193548387
555.0,16.28705743509048,60.60202596380802
556.0,19.476593233674272,90.68770653029111
557.0,14.240715971675847,56.01441778127459
558.0,10.459067663257278,32.32938630999213
559.0,10.704130605822186,21.694531864673486
560.0,11.592741935483872,13.841129032258063
561.0,8.583870967741936,8.666129032258064
562.0,9.022580645161291,13.724193548387099
563.0,11.125,14.491129032258065
564.0,10.921774193548387,11.170967741935485
565.0,9.245397324940992,9.654248623131393
566.0,12.57346671162564,9.702661945974297
567.0,13.396986812034019,8.786930051328163
568.0,13.273621258101981,9.500841107489414
569.0,10.887789891723802,9.267356037615674
570.0,9.509666179611104,9.552583267768162
571.0,8.909276535161665,9.580251770259638
572.0,10.824060544752914,8.912554793750703
573.0,11.46907197182571,9.802854894908396
574.0,10.93381664231389,9.212599752725637
575.0,10.17466561762392,8.474272226593232
576.0,11.775452399685285,8.791817466561763
577.0,12.491974822974036,12.508418568056648
578.0,12.037175452399683,12.572226593233673
579.0,9.813080251770259,10.985562549173878
580.0,10.290814319433515,9.676652242328874
581.0,11.899842643587725,8.691148701809599
582.0,12.937096774193547,9.416935483870967
583.0,13.416935483870967,9.78306451612903
584.0,16.416935483870965,9.656451612903226
585.0,14.203225806451613,10.758064516129032
586.0,13.774193548387096,13.305645161290322
587.0,12.274999999999999,14.460483870967742
588.0,10.88225806451613,13.413709677419355
589.0,12.630645161290321,10.60483870967742
590.0,12.089535798583793,11.495279307631787
591.0,11.274606608969314,10.502478363493312
592.0,9.952222659323368,12.550432730133753
593.0,12.691837136113296,12.257474429583006
594.0,12.821321793863099,10.332572777340676
595.0,14.243076317859952,8.277616050354052
596.0,13.673957513768686,6.279130605822187
597.0,12.490204563335956,7.432710464201417
598.0,11.638788355625492,9.855232100708104
599.0,11.740322580645161,9.890637293469709
600.0,10.69274193548387,9.29819040125885
601.0,7.753801843317973,8.816952343486568
602.0,7.824884792626728,9.264583567494661
603.0,11.293806901202652,8.95668952081226
604.0,14.364692218350754,8.38660971863175
605.0,13.31806601476153,10.625248211007456
606.0,10.039076842381327,12.959836649057735
607.0,8.35234723314975,12.391405342624854
608.0,10.423082687048067,9.64210782660822
609.0,11.436349331235247,11.145554681353264
610.0,10.889221085759246,12.722265932336743
611.0,11.271911880409126,13.795436664044058
612.0,11.798741148701808,13.83068450039339
613.0,12.070967741935483,11.216129032258063
614.0,13.939260424862313,10.013847364280094
615.0,11.614791502753736,11.964181746656177
616.0,11.97029897718332,10.7228166797797
617.0,11.247246262785207,11.409795436664044
618.0,9.979268292682926,11.231510621557828
619.0,9.65241935483871,8.92983870967742
620.0,13.062903225806451,8.717741935483872
621.0,10.95241935483871,8.203225806451613
622.0,12.260483870967741,9.17016129032258
623.0,13.923387096774192,7.995161290322581
624.0,13.582258064516129,7.373387096774193
625.0,10.193548387096774,11.082258064516129
626.0,9.171774193548387,9.919354838709676
627.0,9.736290322580647,10.008064516129032
628.0,10.961175115207373,11.196082949308755
629.0,8.982505338878273,11.745661458918736
630.0,9.808994604923008,11.237346858491627
631.0,10.575946948409577,12.451983814769022
632.0,12.509688659098572,11.727919523434867
633.0,9.276349705893372,12.40121014574201
634.0,14.083414821475403,11.114767149975647
635.0,13.896339590124011,10.568850923532278
636.0,12.289397175077742,11.531002959799183
637.0,12.799694653628563,12.210033344573077
638.0,12.492781274586939,10.73328088119591
639.0,10.166955153422503,9.697285601888277
640.0,8.980409126671912,8.286880409126672
641.0,12.537922895357987,9.3418961447679
642.0,10.36714060919411,9.90795680191825
643.0,12.757134427335057,10.580896182233712
644.0,13.408002697538496,14.24689970402008
645.0,12.51714060919411,16.905511221010826
646.0,12.001685961560076,15.85818440672886
647.0,13.645751376868606,13.335680566483084
648.0,12.761113296616838,13.146597167584577
649.0,12.778324154209285,12.067151848937844
650.0,12.661388670338315,12.35851691581432
651.0,8.452871754523997,22.213532651455544
652.0,8.17686860739575,18.855074744295827
653.0,9.383870967741935,14.783556254917388
654.0,10.200196695515341,13.203343823760818
655.0,9.367210857592447,10.170908733280882
656.0,9.158279007905286,8.939505825933836
657.0,8.627477426848001,7.7721329287025585
658.0,11.884155707916527,8.017459068599903
659.0,9.540032220598704,7.660971863174853
660.0,13.507781649245064,8.680210557865948
661.0,13.4095987411487,9.201416207710466
662.0,11.19417781274587,11.023210070810386
663.0,11.145869394177812,11.79720692368214
664.0,11.434461054287961,10.14683320220299
665.0,9.732494099134538,12.143981117230528
666.0,11.250196695515342,11.769472856018883
667.0,9.408339889850511,12.75531077891424
668.0,8.224232887490166,11.464201416207711
669.0,8.660739575137686,9.531077891424076
670.0,8.942092840283241,9.701022816679778
671.0,7.512745869394179,10.521243115656963
672.0,11.84134539732494,9.218922108575924
673.0,12.388808025177024,7.553599527930763
674.0,10.125098347757671,8.437450826121164
675.0,14.557041699449252,8.778127458693941
676.0,14.493154996066089,10.580330448465775
677.0,11.723367427222659,11.063571990558614
678.0,11.939811172305271,14.26042486231314
679.0,14.694059795436662,11.7162077104642
680.0,12.916660110149488,10.88477576711251
681.0,11.12002360346184,10.623839496459482
682.0,10.031451612903226,8.469354838709677
683.0,9.774193548387096,12.745967741935482
684.0,11.474999999999998,12.315322580645162
685.0,13.425,14.705645161290322
686.0,12.65251770259638,12.58514948859166
687.0,12.236978756884344,10.6948269079465
688.0,12.918489378442171,14.930881195908734
689.0,12.27053501180173,16.591247049567272
690.0,11.153815892997638,13.068607395751377
691.0,10.934893784421714,14.288119590873327
692.0,10.052419354838708,13.764516129032257
693.0,9.260483870967741,13.361290322580645
694.0,11.654838709677419,9.383064516129032
695.0,11.779032258064516,6.469354838709677
696.0,12.07741935483871,4.883870967741935
697.0,9.321774193548386,5.701612903225806
698.0,10.044354838709676,5.193548387096774
699.0,11.338709677419356,7.251612903225806
700.0,10.678225806451612,15.474999999999998
701.0,12.030645161290321,13.639516129032259
702.0,8.05,11.95
703.0,10.497580645161289,9.882258064516128
704.0,11.431451612903224,11.128225806451614
705.0,9.09059795436664,13.512942564909519
706.0,10.355782848151062,10.944374508261212
707.0,11.252891424075532,9.708477576711251
708.0,8.709107002360344,9.361900078678206
709.0,9.08398898505114,9.011998426435877
710.0,10.147580645161291,18.27177419354839
711.0,9.130645161290321,17.063709677419354
712.0,8.799193548387095,12.884677419354839
713.0,8.270967741935484,12.878225806451614
714.0,7.400806451612903,13.704032258064515
715.0,6.1540322580645155,13.82016129032258
716.0,9.860483870967741,11.935483870967742
717.0,10.301612903225806,10.96290322580645
718.0,11.916935483870967,10.61774193548387
719.0,13.329189614476789,11.094728560188827
720.0,12.32120002997265,17.875052452137425
721.0,11.338019369825034,27.456477838971935
722.0,11.58715484620284,22.57420666142145
723.0,8.171803229553033,15.507264621033308
724.0,9.34900153609831,13.023655913978493
725.0,9.037096774193548,13.17741935483871
726.0,13.678088119590873,9.68068450039339
727.0,13.698288749016521,9.64464988198269
728.0,10.798817953617323,10.09229421902514
729.0,11.51720717635855,9.940848909962682
730.0,11.281184233340564,14.724053487239404
731.0,9.566241211870912,13.818360339213722
732.0,10.317660338429555,18.89218567708129
733.0,10.97464823522954,18.731095273818454
734.0,11.899744295830054,13.588060582218725
735.0,12.029346970889062,15.420180959874113
736.0,10.956058221872542,13.219925255704169
737.0,10.975609756097562,10.422501966955153
738.0,11.822974036191976,13.060582218725413
739.0,10.287175452399687,10.572777340676632
740.0,13.092840283241543,9.715184893784421
741.0,11.377130868082872,8.795736390543627
742.0,8.708628376606345,8.67284852572028
743.0,9.969892473118279,9.875448653104042
744.0,9.474324678730659,10.799250683751076
745.0,11.091607658012062,9.734007717957365
746.0,8.951180173092053,11.370613690007868
747.0,12.67244295830055,11.560523210070809
748.0,10.72210857592447,10.39921321793863
749.0,9.513060582218724,9.451062155782846
750.0,11.169354838709676,9.295161290322582
751.0,9.186998426435876,8.204287962234462
752.0,10.605192761605036,8.133595594020456
753.0,13.043725413060582,8.032926829268293
754.0,12.077911093627065,8.161624704956727
755.0,10.399842643587725,7.3787962234461055
756.0,9.716129032258063,7.055645161290323
757.0,11.113709677419354,7.44758064516129
758.0,11.413709677419355,10.369354838709677
759.0,11.206451612903226,8.844354838709677
760.0,12.195967741935483,10.133870967741935
761.0,13.269354838709678,11.42258064516129
762.0,12.936290322580646,8.565322580645162
763.0,9.490322580645161,13.477419354838709
764.0,12.529032258064516,16.155645161290323
765.0,13.563709677419356,14.515322580645162
766.0,10.619315499606607,12.896715184893784
767.0,14.241915814319432,13.671341463414635
768.0,11.936683713611329,11.561073957513768
769.0,10.20987411487018,10.708359559402044
770.0,9.760582218725412,8.902163650668765
771.0,10.81774193548387,9.829838709677418
772.0,10.28467741935484,10.079838709677418
773.0,10.820967741935483,9.90241935483871
774.0,10.230035405192762,14.3551730920535
775.0,10.098308418568056,15.733733280881196
776.0,12.236506687647521,12.590007867820614
777.0,10.841306058221871,10.784205350118018
778.0,11.192761605035404,9.024390243902438
779.0,12.175639728747518,10.247012101457418
780.0,11.050841107489415,13.941366003521786
781.0,9.239593870593083,10.971263721853807
782.0,8.470308343636432,11.231501255104716
783.0,9.374021205649843,12.068543703870219
784.0,9.939979768461278,11.724551346895957
785.0,10.613184219399798,10.626241055037278
786.0,11.286546026750589,9.789771833202202
787.0,10.021400472069235,10.930133752950432
788.0,10.418489378442171,9.04036191974823
789.0,11.193351691581432,16.207435090479937
790.0,10.370161290322581,32.991129032258065
791.0,12.749193548387098,22.996774193548386
792.0,12.311290322580646,15.729838709677416
793.0,14.316935483870965,10.856451612903225
794.0,12.179032258064515,8.954032258064515
795.0,9.289516129032258,7.333064516129032
796.0,11.464575137686861,6.83259244689221
797.0,11.632690794649882,7.729602675059008
798.0,10.239732494099135,8.154720692368214
799.0,8.18276947285602,8.92332808811959
800.0,8.747836349331234,9.922147915027537
801.0,14.77258064516129,10.687903225806451
802.0,14.795967741935483,11.05
803.0,15.948387096774194,9.155645161290323
804.0,13.860483870967741,8.758064516129032
805.0,11.555645161290322,7.830645161290323
806.0,10.787903225806451,9.294354838709678
807.0,9.272580645161291,8.09032258064516
808.0,8.325806451612904,7.60483870967742
809.0,9.420967741935485,8.002419354838711
810.0,11.516129032258064,9.100806451612904
811.0,12.391129032258064,9.744354838709679
812.0,13.557100708103853,9.089319433516916
813.0,10.783792289535798,7.32006294256491
814.0,12.924960660896932,9.460031471282456
815.0,10.529012588512982,8.502596380802517
816.0,8.935877261998428,8.754523996852871
817.0,8.466129032258063,7.1322580645161295
818.0,7.666581431943351,9.153225806451612
819.0,7.96675845790716,9.423387096774192
820.0,7.307572777340677,12.356451612903225
821.0,10.204327301337528,9.58221872541306
822.0,6.870771046420142,8.578048780487805
823.0,9.731608969315499,9.449134539732494
824.0,10.742014162077105,10.373760818253345
825.0,10.701180173092053,9.27458693941778
826.0,12.090952006294255,10.694728560188828
827.0,12.821636506687648,9.59441384736428
828.0,12.681077891424076,10.131589299763966
829.0,13.507474429583006,10.084343036978757
830.0,15.710464201416208,11.037450826121164
831.0,14.231628638867035,12.125963808025176
832.0,12.210958750140497,13.299747105765988
833.0,10.90972799820164,10.877961672473868
834.0,10.084191300438349,8.96491513993481
835.0,12.033047656513432,8.558382038889512
836.0,11.613779925817692,8.900680004495896
837.0,16.064280094413846,10.363119590873328
838.0,13.15027537372148,8.392604248623131
839.0,12.818253343823761,8.48701809598741
840.0,11.355325765239218,9.246862238207637
841.0,14.442546176613838,7.75347495410438
842.0,17.36559139784946,11.328387846090443
843.0,18.398149188865162,9.442808437300963
844.0,15.4193735716159,8.448390843355439
845.0,14.466599228204263,12.297160091416583
846.0,15.551684088269454,13.359971525982541
847.0,16.034018957701097,14.812483608707055
848.0,15.769697650893558,10.676595106964895
849.0,13.563054962346857,11.53696002397812
850.0,12.796635570042335,12.296392042261436
851.0,14.349930688246975,9.608070136000899
852.0,15.089206099434264,10.38350005619872
853.0,13.05612378704432,17.005882132554042
854.0,33.83766063467086,28.13236671537222
855.0,42.995069499082085,40.821887527631034
856.0,80.6458431681091,80.39324116743471
857.0,45.40474691843692,116.67813120527518
858.0,28.015353489940427,95.42278296054849
859.0,16.097819489715633,71.8168390094039
