time,emg_right_hand,emg_left_hand
0.0,8.634146341463415,9.170731707317072
1.0,6.747967479674797,9.1869918699187
2.0,9.09606769537083,21.937282229965156
3.0,9.10987224157956,13.762601626016261
4.0,14.101157693604586,26.284815106215575
5.0,41.542317635157914,30.10228166797797
6.0,74.94849949421153,30.838316286388668
7.0,68.43461841070024,34.87238394964595
8.0,48.38332022029898,25.121872541306058
9.0,26.877496203319126,16.532785940387534
10.0,17.945829140211885,12.3391703108704
11.0,13.444688763654327,11.92966580059649
12.0,9.723554059246519,9.289429674491792
13.0,8.801588201928531,8.439915466671547
14.0,7.681117230527143,6.871321793863101
15.0,5.595232475366228,6.6833848488254475
16.0,5.533906560263759,6.926773069574014
17.0,7.687921022067363,7.598063954141845
18.0,7.873661533850361,6.505237720579971
19.0,6.436624704956726,5.119203102169271
20.0,8.254794687347795,5.989094638642238
21.0,10.619657375145179,6.2249466112172644
22.0,9.121445431044172,6.2728035667453454
23.0,8.817607058559064,4.854340414371886
24.0,9.475777415608256,7.695142557416357
25.0,7.12054999812671,5.788700310966243
26.0,6.375774605672324,4.81645873140759
27.0,5.050944138473643,3.402084972462628
28.0,5.949665617623918,4.083300550747443
29.0,5.482710464201416,6.671341463414634
30.0,5.449016522423289,8.019944925255704
31.0,6.083243415383462,8.616375369974897
32.0,6.140815256078827,7.590042523697127
33.0,9.255891499007156,5.473650294106628
34.0,7.4219662058371725,5.79984639016897
35.0,7.288402457757296,5.848310291858679
36.0,6.841973886328725,6.636904761904762
37.0,11.529907084785133,6.6640759057360155
38.0,9.852050316586116,5.715908920609943
39.0,10.400228541455922,5.778794350155483
40.0,9.411250983477577,6.380948634371136
41.0,10.883990858341763,5.109229702896107
42.0,10.925866396912816,5.2288870780412875
43.0,10.049754598928477,6.0000749316248925
44.0,8.08294930875576,5.007006106927428
45.0,8.121351766513056,6.385223483571241
46.0,7.580502791203028,6.845011427072796
47.0,7.365703795286801,6.445243715109962
48.0,6.6708141321044545,4.353149001536098
49.0,7.621505376344086,3.439938556067588
50.0,11.111290322580645,4.601612903225806
51.0,14.200806451612904,3.836290322580645
52.0,17.150806451612905,7.39516129032258
53.0,11.896774193548387,7.787903225806452
54.0,10.920967741935485,6.252419354838709
55.0,8.647580645161291,4.735483870967742
56.0,7.598387096774193,5.296774193548387
57.0,9.72301200300075,11.680495123780947
58.0,19.464328582145534,16.39508627156789
59.0,19.572486871717928,12.780607651912979
60.0,13.427468474261422,8.831701675418856
61.0,13.941950208806556,7.067001506474179
62.0,12.441056910569106,6.686664044059795
63.0,9.16730264883294,5.061073957513769
64.0,6.347956239931063,3.9087819864373756
65.0,5.690432096096927,3.1601395457414343
66.0,5.196514238449723,3.642847662465067
67.0,4.9895781637717125,4.83524871602516
68.0,5.5496277915632755,4.237382422528709
69.0,7.471204064752451,4.006556034613049
70.0,7.580918661721179,5.311706672312678
71.0,7.451749653441235,3.9048405829680415
72.0,9.800452399685287,3.5968135326514554
73.0,10.491443745082613,4.571951219512195
74.0,9.33656288636619,4.314585440785283
75.0,7.252073732718895,3.336679030384774
76.0,6.55293926503604,3.916705933720096
77.0,7.789307216914119,3.7403765977677748
78.0,10.816762184381528,3.4937130825188203
79.0,11.098886823019075,3.719620336603851
80.0,11.013251436686563,3.058393960591461
81.0,9.205054171610444,2.6705534732651266
82.0,8.390974197583166,2.6198228731666973
83.0,7.767162944582299,2.40479735318445
84.0,9.452764976958525,3.522734254992319
85.0,7.5637480798771115,3.2464669738863288
86.0,9.392357910906298,3.895007680491551
87.0,19.06351766513057,4.770084485407066
88.0,18.288112097710837,6.5914840208309915
89.0,16.241751901389982,4.537370274624404
90.0,10.896970889063729,4.7765342250196685
91.0,9.682356412273801,4.793509047993705
92.0,9.83351691581432,5.610464201416207
93.0,10.161998426435877,5.162981904012589
94.0,7.207631785995279,5.045476003147128
95.0,6.481864673485444,5.991266719118804
96.0,6.290125885129819,6.389181746656176
97.0,6.915106215578284,5.923780487804878
98.0,7.149645948072385,5.993430369787569
99.0,6.3786782061369,4.724881982690794
100.0,6.08007474429583,5.486801730920535
101.0,6.08756884343037,6.172305271439811
102.0,6.282108777663459,7.153140067380823
103.0,5.97858389315903,6.387348947931166
104.0,6.434856462708547,6.737222861062357
105.0,6.169355847404628,6.583638967903326
106.0,6.67665274667635,8.187728217232543
107.0,6.128638867033832,7.476199842643588
108.0,6.4211250983477575,5.749508261211644
109.0,6.067820613690008,5.47193154996066
110.0,6.448426435877261,7.445239968528717
111.0,4.915342250196695,6.714555468135326
112.0,6.643688883893447,7.1307781649245054
113.0,6.581797235023041,7.925499231950844
114.0,6.491551459293395,9.076228878648234
115.0,6.090937019969278,8.33609831029186
116.0,6.0354370387021845,6.335594395114457
117.0,7.567004795623992,7.251008767000112
118.0,6.4395507849087705,6.777520512532314
119.0,7.60320916298493,6.574539530755109
120.0,6.957102221146281,5.7948818818213
121.0,7.361320583429158,5.6842230022796505
122.0,7.043996247654784,5.65265438076217
123.0,6.07929552744659,4.825786277713894
124.0,4.847836349331235,6.282454760031471
125.0,6.1030684500393395,6.4654602675059
126.0,9.75302911093627,6.18859166011015
127.0,10.379740361919747,9.492682926829268
128.0,11.6029307631786,10.974901652242327
129.0,9.416424075531078,10.562313139260425
130.0,8.00634951856431,10.286840133378291
131.0,9.479876175489865,9.164702521449177
132.0,7.1064703458094485,8.598883518789105
133.0,7.000014986324978,7.346985875388707
134.0,8.080652654452813,5.714012213854858
135.0,7.404535236596605,7.161768011689334
136.0,5.550261324041811,6.136116106552771
137.0,4.437630662020906,6.4587838597279985
138.0,7.485405192761606,6.586073957513769
139.0,9.80241935483871,4.966129032258064
140.0,8.896597167584579,3.4513375295043276
141.0,7.85595987411487,5.074055861526357
142.0,8.338060582218725,5.897915027537372
143.0,6.775078678206137,6.066699449252557
144.0,5.529071597167585,6.3337529504327295
145.0,4.016935483870967,5.609677419354838
146.0,3.5774193548387094,5.329838709677419
147.0,7.02983870967742,6.711290322580645
148.0,6.925000000000001,6.699999999999999
149.0,9.620830055074745,5.259323367427223
150.0,7.97464313813645,6.054546476340339
151.0,6.092056887513221,6.610854710461319
152.0,7.510141346982417,6.29816929071453
153.0,5.981280350910563,6.060778193744362
154.0,6.950750324943874,5.573898144865886
155.0,9.813854425144747,5.593631100082713
156.0,7.470515342250197,5.28808025177026
157.0,10.325354051927615,6.788788355625492
158.0,8.509047993705744,7.287136113296617
159.0,6.911782061369001,7.536309992132179
160.0,6.790165224232887,7.251219512195122
161.0,7.893509047993705,6.382887490165224
162.0,7.452419354838709,5.587903225806452
163.0,6.729032258064516,4.282258064516129
164.0,7.3032258064516125,3.2427419354838705
165.0,5.177635719905586,4.858221872541306
166.0,6.184461054287962,4.4930369787568845
167.0,9.492230527143981,6.9416797797010235
168.0,7.745712037765538,6.339791502753737
169.0,5.708339889850511,5.996105428796223
170.0,6.541817466561762,5.776180173092053
171.0,5.579878048780488,5.775658929976396
172.0,7.012116443745082,6.377345594020456
173.0,9.325885129819039,6.798465774980331
174.0,10.027301337529504,9.21372934697089
175.0,9.464555468135327,10.439358772619984
176.0,7.624213217938631,8.972501966955154
177.0,5.18347757671125,6.191896144767899
178.0,5.026199842643587,6.348033044846577
179.0,4.95,6.783064516129032
180.0,5.2905586152635715,5.925570416994493
181.0,6.379445318646734,6.090460267505901
182.0,5.63286782061369,6.459343036978757
183.0,4.799095200629425,5.893902439024391
184.0,7.789063729346971,6.544531864673486
185.0,7.595633359559402,7.2647128245476
186.0,7.794354838709677,6.7566679779701015
187.0,8.825806451612902,6.89567269866247
188.0,10.667820613690008,7.704327301337529
189.0,11.291974822974035,8.484421715184894
190.0,9.228461841070024,7.5892210857592435
191.0,8.22439024390244,6.526219512195121
192.0,7.194453186467349,6.582061369000787
193.0,7.386841070023603,6.948859166011015
194.0,7.265853658536585,6.473170731707317
195.0,8.223875088981305,6.568869656438499
196.0,8.829089393428497,6.494112247574089
197.0,10.380998276572626,6.463165486493574
198.0,16.546626203589224,8.601626016260163
199.0,15.226656925555428,9.337949121426696
200.0,12.008182533438237,8.109834775767112
201.0,8.740893934284964,9.911910381776629
202.0,7.5872841032557785,8.735970926529543
203.0,5.847772657450077,8.570660522273425
204.0,6.227702221722677,9.437198868532464
205.0,6.509287774905398,10.020772919710765
206.0,6.016011014948859,9.572521636506687
207.0,7.710365853658536,8.491797797010229
208.0,7.707395751376868,8.477419354838709
209.0,9.129818031430935,6.798918679013092
210.0,11.215656458673767,5.204494744699308
211.0,10.050579999596522,4.203663580060118
212.0,10.716084649680244,3.4047428836571245
213.0,7.983691420040751,3.862638947729428
214.0,7.217073170731707,5.278383162863887
215.0,8.697010228166796,5.334382376081825
216.0,8.026239181746657,5.399606608969315
217.0,7.216896144767898,5.63882769472856
218.0,6.845928402832415,6.637490165224232
219.0,5.278206136900079,7.3147128245476
220.0,7.196066089693154,6.5647521636506685
221.0,8.381904012588514,4.924311565696302
222.0,7.065774980330449,4.317309205350118
223.0,7.130055074744297,5.952124311565695
224.0,7.529543666404406,5.725255704169944
225.0,7.21750590086546,6.482690794649882
226.0,6.139398111723052,5.922797010228167
227.0,7.02816679779701,5.765027537372148
228.0,6.030684500393391,7.108556254917388
229.0,4.70889063729347,6.7933910306845
230.0,7.519354838709678,6.558064516129033
231.0,5.508064516129032,5.825806451612903
232.0,5.0192368214004714,5.454386309992132
233.0,10.005645161290323,6.430802517702596
234.0,8.718625192012288,7.658219999250684
235.0,9.084715821812594,8.165400322205986
236.0,10.02058371735791,9.858506612715896
237.0,7.65812820801019,7.995421677719081
238.0,6.2761136712749614,9.25837173579109
239.0,7.187903225806451,8.899999999999999
240.0,5.389516129032257,8.969354838709677
241.0,7.066227380015735,9.903501180173091
242.0,7.809323367427222,8.51787962234461
243.0,8.246597167584579,8.71014948859166
244.0,7.902734067663257,7.610719905586152
245.0,7.742564909520063,7.2726986624704955
246.0,7.256150013113034,8.327649769585253
247.0,6.924042748492001,8.733179723502303
248.0,8.082172829792814,8.85480780038215
249.0,7.481458169420403,7.443306732606497
250.0,7.4346708628376605,7.1712993143756325
251.0,9.92970102281668,7.949704956726986
252.0,7.7866247049567265,7.738158929976397
253.0,7.718804091266719,7.414634146341463
254.0,8.720535011801731,8.745869394177813
255.0,9.301652242328874,7.887096774193548
256.0,10.491955153422502,9.466935483870968
257.0,9.567348544453186,8.740322580645161
258.0,8.414319433516916,7.687096774193549
259.0,10.081667977970103,8.05125885129819
260.0,9.024626278520849,6.622010228166797
261.0,8.478442171518491,6.746892210857592
262.0,9.99274193548387,7.3356805664830835
263.0,19.5698269079465,7.689614476789929
264.0,14.032731070398263,7.763600089917949
265.0,13.916115919223706,6.648121089505826
266.0,12.235285302161778,5.890112772095463
267.0,11.019294893409764,5.045371098872279
268.0,8.952999138286314,4.281930238657225
269.0,6.389148747921368,3.231772161748558
270.0,5.207170380105078,2.95905044339348
271.0,7.660420827533337,2.686130444430995
272.0,7.661839052633702,2.519697794992838
273.0,5.735718896891202,2.7492273396679376
274.0,5.318231656882325,2.554100849321148
275.0,7.335227158102846,2.679971353063406
276.0,6.149468417761101,2.7706308378220257
277.0,4.73190329209212,4.258812103186612
278.0,5.541325367525211,4.9971479870771764
279.0,5.876979131542468,5.179644824098011
280.0,5.74848169795062,5.200758682702034
281.0,4.376833014873927,6.425379341351017
282.0,6.2617652017534,4.953933910306845
283.0,9.298752388445543,4.664358772619984
284.0,14.884717695103218,7.236454235510096
285.0,12.183900940391892,8.331445056386046
286.0,9.202128058146942,7.984959349593495
287.0,7.504289835525084,6.8126409651193285
288.0,6.549784571578434,8.13511670600577
289.0,5.971282454760031,7.3568056648308415
290.0,8.625295043273013,7.191778127458694
291.0,7.878422501966954,8.20824154209284
292.0,6.979937057435089,8.01420141620771
293.0,5.8134146341463415,8.338611329661683
294.0,5.946892210857592,7.460542879622344
295.0,6.069905586152635,8.067407553107788
296.0,5.32043666404406,8.647010228166797
297.0,7.013847364280094,8.12108575924469
298.0,5.895908733280882,8.243076317859952
299.0,4.798387096774194,8.931451612903226
300.0,4.877419354838709,7.763276947285601
301.0,6.945928402832416,6.60302911093627
302.0,7.8908929976396545,5.595928402832415
303.0,10.320043273013376,7.602975722153534
304.0,8.363650668764752,7.841407215915477
305.0,6.991502753737215,8.677823985613129
306.0,5.1977183320220295,8.533089805552434
307.0,6.202073732718894,7.081336405529955
308.0,8.434907834101383,6.9991935483870975
309.0,9.844470046082948,7.82016129032258
310.0,8.922235023041473,7.048387096774193
311.0,6.631623018995166,5.266011014948859
312.0,9.289083398898505,5.497521636506687
313.0,9.078953579858378,5.594158143194335
314.0,7.702380015735641,7.238611329661683
315.0,11.297560975609755,6.3164830841856805
316.0,9.88882769472856,5.228658536585366
317.0,9.865027537372146,5.568410700236035
318.0,13.599592559289649,5.555045708291184
319.0,16.75358266831516,8.626509872241579
320.0,12.183108538458656,9.362467685736766
321.0,7.9458619010153235,10.531302686298751
322.0,6.89708515979169,9.196257165336629
323.0,5.917492787831104,8.134142594882169
324.0,5.627904537109886,6.208692068487505
325.0,6.971479150275374,6.51801730920535
326.0,8.236487018095987,7.654760031471282
327.0,5.998269079464988,7.113060582218725
328.0,5.429504327301338,6.746459480723839
329.0,4.789260424862313,6.358516915814319
330.0,5.3323564122738,6.428697875688433
331.0,5.373367427222659,6.054681353265146
332.0,4.392663257277734,7.398151062155783
333.0,8.765936083323966,6.987554793750702
334.0,7.991071896894084,7.086647184444194
335.0,10.055331385111087,6.925306283016747
336.0,8.714919823161367,8.102700348432055
337.0,7.978063766812783,7.939754973586602
338.0,6.400629425649095,9.244531864673485
339.0,5.175767112509835,10.48119590873328
340.0,4.8084185680566485,9.002596380802517
341.0,5.086191974822974,8.263060582218726
342.0,6.09406534325889,8.66404052936311
343.0,5.8857128447215,10.382600516451815
344.0,7.296101898363896,8.428682240916702
345.0,7.357593959934636,8.407682725090279
346.0,6.133232463838286,9.462309104480623
347.0,6.255284552845529,11.075902277633197
348.0,6.510805140309467,10.25313603260102
349.0,9.104419092578022,8.916339849502712
350.0,8.55037372147915,7.407533438237608
351.0,6.537214791502754,7.198878835562549
352.0,6.188423063954142,6.751455546813532
353.0,4.609553782173767,8.45912667191188
354.0,4.736090817129369,6.915027537372148
355.0,5.8145442283915925,5.55153422501967
356.0,8.847004608294931,6.635483870967741
357.0,6.796380802517703,6.93910306845004
358.0,7.136585365853659,7.724468922108575
359.0,7.86066089693155,6.548701809598741
360.0,6.425059008654602,5.980094413847364
361.0,7.534610917537746,4.807481922745494
362.0,5.754716945786969,6.351813345322393
363.0,6.552496159754224,7.295890937019969
364.0,8.22342549923195,9.458026113671275
365.0,7.429159641826832,9.098653104042562
366.0,6.683005507474429,9.247108575924468
367.0,6.701062155782848,7.895436664044059
368.0,5.33426435877262,6.89883949645948
369.0,6.969090704731931,7.504776891086882
370.0,6.63875463639429,7.8428683826008765
371.0,11.518039788692818,8.380128133078566
372.0,12.070545242850514,7.868794724813608
373.0,9.646995674139655,7.773500430856843
374.0,10.374104783231456,5.45371098872279
375.0,10.873182547848165,14.281312052751865
376.0,8.312830455670738,12.686997489790567
377.0,9.517126559514443,15.360703045970551
378.0,9.553163987861076,15.676958525345622
379.0,8.018124086770822,12.843435989659437
380.0,7.376573564122738,12.185542879622345
381.0,6.99915512414689,10.260035130733904
382.0,6.275095995253169,8.236238763523634
383.0,6.695339013324761,6.334428249919623
384.0,5.972521985025873,4.482005627713548
385.0,6.387569017689962,3.4467954967836034
386.0,6.893709490090293,2.890839608856918
387.0,7.710314338166423,3.0011127346296504
388.0,6.244295830055075,5.476868607395751
389.0,9.349437148217635,9.904979926970485
390.0,10.577865702354295,9.102371946176037
391.0,12.473207044725534,7.736266618249309
392.0,16.095769533377716,9.959400028243458
393.0,11.853470919324579,10.891737779660673
394.0,10.671400472069237,11.465637293469708
395.0,9.829824659997751,12.028805589899218
396.0,7.46088007193436,11.100693117530254
397.0,6.114861751152073,8.184178187403994
398.0,7.417570529391929,8.435244089768087
399.0,6.005962684050804,8.590202690045334
400.0,5.584778577048443,7.805470008617137
401.0,7.830119703270766,7.439562961297816
402.0,8.752894234011464,10.315975422427035
403.0,8.168811584429207,9.440330073807651
404.0,7.596118541830579,8.178037540744072
405.0,8.964418717919898,7.444011089880484
406.0,8.825296916563635,6.599962534187553
407.0,8.310445468509986,6.2394777265745
408.0,6.600076804915514,5.742780337941628
409.0,6.439516129032258,5.752419354838709
410.0,6.655645161290322,4.896774193548387
411.0,10.670967741935483,5.58678955453149
412.0,12.761978756884343,7.428288561687459
413.0,8.08831628638867,7.19040313214192
414.0,6.807061369000786,7.204878985425799
415.0,6.289494586190101,7.308564684725188
416.0,6.611899142032895,6.7633546888464275
417.0,7.652133678018808,9.465076242928326
418.0,5.494831591173055,8.838360308718293
419.0,6.909819789442134,8.57995204376007
420.0,9.164512382451013,8.502528942340113
421.0,8.014986324978457,8.125143306732607
422.0,7.9159117305458775,8.809778577048442
423.0,11.104690719718256,10.03864223895695
424.0,8.919079464988199,9.279071597167583
425.0,7.503992918961448,8.904209284028324
426.0,5.383044846577498,7.734362706530291
427.0,6.744295830055075,8.458615263571991
428.0,6.1793863099921325,8.191070023603462
429.0,5.780330448465775,6.8098544453186465
430.0,6.414850511408339,6.502675059008655
431.0,6.300118017309206,7.273918174665617
432.0,5.98719512195122,7.643489378442172
433.0,8.13566089693155,9.357140047206924
434.0,6.649095200629425,9.876632572777341
435.0,5.6198531340152105,11.976999737739312
436.0,10.569643325465513,12.853015997901915
437.0,10.18562811434566,14.87731445056386
438.0,10.684002098085497,14.17776029373197
439.0,8.974731182795699,15.297849462365592
440.0,7.420751376868607,12.68780487804878
441.0,6.083221872541306,10.329917387883555
442.0,8.248269079464988,9.390912667191188
443.0,7.888996290884568,8.891001648495749
444.0,8.267078790603573,8.622516953280133
445.0,7.740541755647971,6.740054700086171
446.0,7.4139372822299645,6.385762991270466
447.0,5.590996965269192,7.1556667041324795
448.0,4.930291109362706,5.839968528717545
449.0,6.210306845003934,5.645790715971676
450.0,9.109312127683488,4.695773856356075
451.0,9.270852534562213,6.083640552995391
452.0,10.715706605222735,5.850614439324117
453.0,10.911771830320218,11.88918232305329
454.0,8.27645043128914,13.158300838946
455.0,6.024400330851943,12.014864705187286
456.0,9.722018081577485,13.239308265822821
457.0,9.465220198107687,13.086487522443463
458.0,9.579661683713612,19.340243902439024
459.0,13.232907159716756,19.411998426435876
460.0,12.345082612116443,16.88906372934697
461.0,14.242014162077103,13.388985051140834
462.0,12.880802517702595,11.547600314712824
463.0,10.203561125473005,12.136188228241728
464.0,7.059331797235023,9.99615975422427
465.0,9.139333483196582,7.902780899928814
466.0,7.6971057659885345,7.289303510546626
467.0,6.564029073470458,6.681671724551347
468.0,7.1500693117530245,5.722471994305197
469.0,6.718429433142257,6.006166872728635
470.0,6.3883256528417816,6.518032295530329
471.0,7.656082574650631,6.220621183170357
472.0,7.287372147915027,4.898741148701809
473.0,7.811664044059794,4.0174272226593235
474.0,11.160267505900865,6.12564909520063
475.0,9.608851298190402,4.510896931549961
476.0,9.122513206698887,3.9167771908133826
477.0,7.131673597841969,4.417082537184818
478.0,12.180077554231763,14.80216833389532
479.0,10.634393615825559,17.449874489528305
480.0,15.586276272900976,11.999524184181935
481.0,18.13115656963021,8.47387883556255
482.0,15.969379047388486,6.474224817930562
483.0,11.53821037341887,4.994586838548287
484.0,15.866961205592206,7.453735197401602
485.0,11.835882161373899,8.317328802852012
486.0,14.340137701270669,10.912197427539677
487.0,15.532351729047244,12.364370012363718
488.0,11.762714023453597,12.643947397999327
489.0,11.364441197407366,7.45375969427897
490.0,9.085600014986325,5.3737308456033865
491.0,7.314535798583792,5.002380015735642
492.0,5.298800157356412,3.2765932336742725
493.0,7.583751077142108,3.044095387958488
494.0,13.429877112135177,8.887980030721966
495.0,15.75284178187404,20.194393241167436
496.0,13.643010752688173,16.813863287250385
497.0,12.991385346336584,12.096813489086557
498.0,8.363280998821134,10.862615653913478
499.0,6.593904464792157,9.341476985099932
500.0,6.548437283536912,7.273561073195128
501.0,6.342651821491958,5.540543977457778
502.0,4.927871754523997,7.890814319433516
503.0,5.661054287962234,9.621872541306058
504.0,7.790715971675845,8.036349331235247
505.0,7.459162264433704,7.976700011239743
506.0,7.081117230527143,6.687197931887152
507.0,8.603107789142408,6.679554906148139
508.0,8.870633359559402,5.789895470383275
509.0,8.243036978756884,4.086725862650331
510.0,7.279708515979168,6.964628526469596
511.0,6.680330448465774,7.679779701022817
512.0,7.270377655389456,7.162785208497246
513.0,7.1650668764752155,10.98929976396538
514.0,9.362627852084973,25.646105428796222
515.0,8.007603686635946,27.46100183582481
516.0,17.236649994380127,21.06161814843955
517.0,12.506238057772283,16.61709939680042
518.0,9.0752688172043,13.604435952193622
519.0,11.024101757146603,10.31315424674984
520.0,8.050069311753024,9.49421153197707
521.0,6.302375332509085,10.682196245925592
522.0,7.6954347907534375,9.374892285789215
523.0,7.356250234161328,6.994572140421864
524.0,7.095463826758083,7.135592521823836
525.0,5.836806414147091,5.8755535573788915
526.0,5.754752538308793,5.829200854220524
527.0,6.2669308006444115,6.563141133715485
528.0,5.601600726836761,5.913749953167734
529.0,5.570263384661496,4.9791802480236775
530.0,5.216129032258064,6.252281667977971
531.0,7.426317859952793,6.932199055861526
532.0,6.028481510621558,6.793115656963021
533.0,5.673994979581132,6.556120040463076
534.0,5.7555655464388735,8.699775205125324
535.0,6.991472781087257,9.013538271327413
536.0,5.974571953092802,9.817075980667642
537.0,5.066318234610917,7.52345734517253
538.0,7.344453186467349,7.877498033044846
539.0,8.235955940204562,7.568961447678992
540.0,6.593430369787569,8.15112116443745
541.0,7.175747442958301,7.3767702596380795
542.0,6.730605822187254,8.903068450039338
543.0,7.663886703383162,9.971361132966168
544.0,8.008969315499606,8.479779701022817
545.0,7.419807238394965,7.853599527930763
546.0,5.524744295830055,8.287254130605822
547.0,8.120121951219511,8.068332022029898
548.0,7.843528717545239,7.702714398111723
549.0,7.059697088906372,7.9430173092053495
550.0,5.535444531864673,12.502478363493312
551.0,6.647344610542879,11.726062155782849
552.0,7.8240755310778916,10.006176239181748
553.0,7.441070023603461,8.921636506687648
554.0,7.540833988985051,7.993941778127459
555.0,6.788812708403581,7.26588175789592
556.0,7.360604986411438,8.790821812596008
557.0,7.474539314606191,9.800888876400286
558.0,5.9580261857209145,9.075310029597993
559.0,6.546755028344329,8.384429208347383
560.0,5.835051861330382,9.63000262260687
561.0,4.803896444494399,7.8835824809861
562.0,4.242624854819977,9.471295567794387
563.0,7.028992918961448,9.530271439811173
564.0,6.8736034618410695,9.424980330448467
565.0,9.984010167645101,9.581286691278823
566.0,9.183979906796587,8.71786600496278
567.0,8.733385929570037,9.120819031479929
568.0,8.377845600504923,9.479547989382766
569.0,7.680346875783539,7.390285403031272
570.0,7.83942902101832,7.834348656850622
571.0,10.496425761492636,9.739676295380464
572.0,8.981549960660896,13.804366640440596
573.0,8.799272226593233,12.85977576711251
574.0,10.338749016522423,14.62625885129819
575.0,8.247993705743507,13.750059008654603
576.0,7.811093627065302,13.308497246262785
577.0,8.623485444531864,9.802478363493313
578.0,10.240696302124311,9.682572777340678
579.0,7.751062155782849,9.617820613690007
580.0,8.100869206848751,8.867769098197893
581.0,8.487800194822224,8.454372260312464
582.0,10.160353677269491,7.178936720242778
583.0,8.42973286875726,7.956352328500244
584.0,6.830279869618973,8.146472593758196
585.0,5.538027799632835,7.539979768461279
586.0,4.652347233149751,7.070143494061668
587.0,4.394623655913978,7.297542242703533
588.0,4.100874826720617,7.34694653628564
589.0,6.456274586939418,5.835070810385524
590.0,6.112411487018095,6.017938630999213
591.0,5.8253147128245475,7.181805664830842
592.0,4.831077891424075,9.550590086546027
593.0,5.462273800157357,8.97789142407553
594.0,5.158556254917388,8.907494099134539
595.0,5.957907159716758,8.133988985051142
596.0,8.001376868607394,8.2007474429583
597.0,8.583693941778126,10.325112397437337
598.0,6.498367427222659,10.93148814207036
599.0,6.127242328874901,10.146821962459256
600.0,5.251927616050354,9.716556142519948
601.0,6.117859952793076,8.195886253793413
602.0,7.1589299763965375,13.12328874901652
603.0,6.82360346184107,11.628756884343037
604.0,5.723760818253344,8.382828481510622
605.0,4.892387883556255,6.5855035405192766
606.0,4.512726199842643,7.326219512195122
607.0,5.463360253621511,8.41465150182811
608.0,4.86030915906882,7.33353542833341
609.0,7.193726570093025,9.362440412829175
610.0,7.886792474660989,9.221739482575092
611.0,6.01718655991114,7.423369741287546
612.0,5.358988985051141,7.758752950432729
613.0,8.093607395751377,7.90558615263572
614.0,8.516177737814244,8.884283091678842
615.0,7.520874077404368,9.34576074332172
616.0,5.732840657899666,8.9995129444382
617.0,6.894163763066202,9.148701809598741
618.0,6.475710913791166,7.696931549960661
619.0,10.848300925405567,9.546776066839008
620.0,15.950192948934099,14.809186617211793
621.0,13.613963508298678,21.11387733693005
622.0,15.541030684500395,23.86467348544453
623.0,12.702773406766326,18.204917387883555
624.0,10.852519575887003,14.424770521898768
625.0,13.0247649020269,17.795489116181482
626.0,10.218047281855306,14.465014424337792
627.0,7.980463452099958,10.85068187778652
628.0,8.63297366153385,9.703566745344872
629.0,9.128127458693942,8.645121951219512
630.0,6.116384736428009,8.740342250196695
631.0,5.985583591019706,7.363466323898048
632.0,9.57890509212669,5.947340951091431
633.0,6.691380162113699,4.986386840612592
634.0,6.700371434321995,3.917662342414872
635.0,6.029414670740856,4.1198067809635335
636.0,6.545239968528717,5.637922895357986
637.0,6.818568056648308,7.350668764752164
638.0,9.752714398111722,5.697757671125098
639.0,9.663611329661684,5.846911880409127
640.0,8.359225019669552,4.726966955153423
641.0,8.853402832415421,5.5517899291896144
642.0,6.283556254917388,4.180330448465774
643.0,5.018646734854445,3.1955940204563333
644.0,5.352360346184107,8.678048780487805
645.0,6.390184893784422,7.440125885129818
646.0,5.626140833988986,8.636191974822973
647.0,5.508261211644374,9.68276947285602
648.0,6.730133752950433,8.06522423288749
649.0,7.3267393503428115,11.193939904836837
650.0,10.610776320453738,26.421305726793534
651.0,16.138983754247324,27.2158751293291
652.0,13.058608058608058,27.93954747062536
653.0,14.441735185873657,23.53240158739765
654.0,11.223171740402266,20.211285279105894
655.0,9.746367689483346,16.413244164699712
656.0,6.738565434041437,10.899541043797534
657.0,5.675196695515343,13.6546860364917
658.0,5.368450039339104,8.740905174028697
659.0,4.594531864673486,5.421125098347758
660.0,4.238571990558615,3.641404405979544
661.0,6.801368294700317,5.203280780326414
662.0,6.395265185902479,4.748070366559745
663.0,7.730677439528738,6.748543444491516
664.0,8.673363896790333,7.587883051907442
665.0,11.368536787104844,9.706441525953721
666.0,10.32289535798584,10.150904799370574
667.0,11.45255704169945,10.367663257277734
668.0,11.014162077104643,10.99335169158143
669.0,8.627852084972464,11.645377655389456
670.0,7.491050354051928,12.787077104642014
671.0,8.17491930440396,13.42392523553027
672.0,6.094314490911659,11.821640037119973
673.0,6.516108858359055,11.712029695979341
674.0,6.200934051524138,11.943583691420042
675.0,6.116832092638544,11.825765095119934
676.0,8.630507474429582,11.32755704169945
677.0,8.510511033681766,9.971977445580906
678.0,6.722191000711851,7.694249934434827
679.0,7.567009478850549,6.010201004083774
680.0,8.098827320070436,5.189374695590273
681.0,7.690168970814132,5.3861901015323514
682.0,6.632362968790979,4.22758233112285
683.0,6.256779438762129,3.9241766887714964
684.0,6.529464988198269,4.081904012588513
685.0,5.594177812745869,5.504130605822187
686.0,7.524311565696302,4.4091266719118805
687.0,7.601410155540761,3.660927192398475
688.0,10.126432851177146,2.9543817708648548
689.0,12.023700296556314,6.7118683047872665
690.0,11.423337166374145,10.483786237366095
691.0,9.431180778309024,12.646505160195169
692.0,7.135641227380016,14.043218687947249
693.0,7.8034431081638,13.890928590161478
694.0,8.86722116069087,12.155033531902138
695.0,8.49183245288674,12.082630849349968
696.0,9.699142032894983,13.730793151249483
697.0,8.073331834700836,11.487190438724664
698.0,5.584893784421714,9.253973249409913
699.0,7.111880409126671,8.9279307631786
700.0,8.288276947285603,8.114398111723053
701.0,7.363493312352478,7.267682926829268
702.0,8.653789666928928,7.033284627777153
703.0,7.525793338578547,7.929230826870481
704.0,5.545430107526882,8.715284178187403
705.0,6.427150537634408,8.082642089093701
706.0,6.178494623655913,11.197772657450077
707.0,6.052596380802518,11.328973249409913
708.0,6.718233674272227,11.20037372147915
709.0,6.634992132179386,10.570889063729346
710.0,8.687136113296617,11.58542486231314
711.0,12.126158189475634,12.153931596241959
712.0,8.105565326051742,10.841717961771648
713.0,9.031008469477484,9.92731059378905
714.0,8.703938538436617,8.240209191465729
715.0,6.949923635858749,8.476516869533022
716.0,6.149291896144767,7.8970495672698675
717.0,5.369059795436664,7.574567269866247
718.0,6.8053501180173095,9.318332022029898
719.0,8.656412273800157,10.115892997639655
720.0,7.002950432730135,9.315538945712039
721.0,5.39532015977728,10.20118370352438
722.0,4.714192337953156,10.995349916278318
723.0,5.760715366458875,9.386345296455445
724.0,8.05760844191214,9.078433597611411
725.0,8.335904929059925,8.467806491960701
726.0,6.573266269529054,8.953829006031995
727.0,7.079989509572515,7.2997639653815884
728.0,5.887209171630886,4.739406541530853
729.0,5.950747442958301,5.569165636356824
730.0,6.526514555468135,5.2759282155033524
731.0,9.278992918961448,5.254407852834289
732.0,9.951170806638942,4.726666292008542
733.0,15.595554681353265,5.834992132179385
734.0,12.589520812258815,11.6855644224645
735.0,9.495625866396914,10.3674084897531
736.0,6.221927803379417,9.355222734254992
737.0,4.721850998463902,10.105837173579108
738.0,5.4884923757071675,10.154885541942978
739.0,7.551278520849724,8.362726199842644
740.0,7.426848937844217,10.166443745082612
741.0,7.286900078678206,9.343548387096774
742.0,10.899632835038027,8.321812596006144
743.0,7.380343561500132,5.985139185493237
744.0,5.6119806301749655,6.567875875763366
745.0,5.06284515379716,7.066599228204264
746.0,6.185867895545314,8.157296466973886
747.0,6.892763478326027,10.10241092503091
748.0,7.95041399722753,9.943947397999324
749.0,7.600629425649095,9.553540519276158
750.0,6.621479150275373,9.34809205350118
751.0,9.153059083586227,8.617421602787456
752.0,8.244192799070847,7.290929526806789
753.0,9.695483496309617,7.6970776666292
754.0,6.494810984976208,8.787523884455435
755.0,5.9569255554306695,9.137349668427559
756.0,6.338943694647864,9.456510117210353
757.0,6.073964934881536,10.20817057319811
758.0,7.881170114962405,8.623302438447993
759.0,8.253724317906064,8.457992682638631
760.0,8.810408579094654,6.619053383018764
761.0,8.133865347870069,5.506837510771421
762.0,6.101494885916601,4.127458693941778
763.0,8.416365066876475,5.8851298190401256
764.0,8.136191974822975,4.924154209284028
765.0,6.7319040125885135,4.627773406766325
766.0,5.258870967741935,6.201612903225806
767.0,10.648924731182795,6.677611367127495
768.0,10.790591397849463,10.415821812596004
769.0,8.984408602150538,11.87726574500768
770.0,7.255913978494624,11.71363287250384
771.0,7.5834869431643614,12.061751152073732
772.0,6.940213281342313,9.027596596951437
773.0,6.025604280324973,8.644423790214507
774.0,6.282983100036601,8.00157853554785
775.0,9.774644579129236,9.9487337996386
776.0,10.376223042627448,10.466602110189836
777.0,7.360346184107003,8.874901652242329
778.0,6.446420141620771,8.17230527143981
779.0,6.704484657749804,7.796852871754524
780.0,5.408103855232101,8.616365066876476
781.0,6.809434442541769,8.198680983014764
782.0,10.198029573749249,10.588954968297312
783.0,13.570090711343546,13.846995186745037
784.0,12.96972277502661,15.990836303049939
785.0,8.839857453602999,11.596834359235434
786.0,8.138237608182534,16.321164437450825
787.0,11.412206361694953,14.811273462965044
788.0,9.395586527293844,11.214467423476076
789.0,8.27367652017534,12.349322805440035
790.0,10.561799857629913,10.997414858941216
791.0,7.149507324566333,8.690682252444644
792.0,8.11277209546289,6.105248960323705
793.0,14.894327675995655,5.112532314263235
794.0,13.27765538945712,7.265636356824398
795.0,18.087291596418268,6.188117717582706
796.0,13.52594320182833,8.359204413472707
797.0,9.120690494923382,6.956618335768611
798.0,6.41134371136338,5.797049567269866
799.0,7.4635298415196125,5.4132572777340675
800.0,7.784756293603016,11.84025579565623
801.0,9.132852463987076,8.431105380874834
802.0,7.786275619427505,7.3746793623492986
803.0,7.450395874229882,5.870807423110133
804.0,6.299009072825697,9.033550199396538
805.0,6.648950826556813,7.264033342830482
806.0,7.727701219730019,5.809436026253951
807.0,8.619948170840619,7.574269547351996
808.0,9.483843086207091,7.304296457389609
809.0,10.309992132179385,6.9367015098722415
810.0,8.821969952418419,5.450916039114308
811.0,9.235869768835936,4.641894271477277
812.0,8.491892398186653,9.655722902851148
813.0,8.373404893035104,8.202763103667902
814.0,8.551986624704956,8.418509047993705
815.0,10.167064740923907,10.743413510171967
816.0,11.084972462627853,8.959379566145891
817.0,11.994324190803798,10.223313188924408
818.0,13.31541543922566,12.127785626720268
819.0,12.760933526064441,10.028812168198844
820.0,11.560420680082913,6.821088111749192
821.0,9.136201123451595,5.451327466012844
822.0,7.6436551646622455,5.598774867933011
823.0,5.7919298639991,6.894588063392154
824.0,7.100189202352853,9.352862388070884
825.0,8.052091528979805,7.218750702483983
826.0,6.77275111460792,7.3941216140272
827.0,6.871567194934622,8.888614139597617
828.0,7.625004683226555,7.393244914015961
829.0,11.133086058971188,5.4177438087744925
830.0,9.242426286014013,5.761099246937169
831.0,9.69320370162227,5.01823648420816
832.0,9.568474392117192,10.337599752725637
833.0,7.649636581619272,11.106223071447303
834.0,6.587819864373759,12.44229328237983
835.0,7.177625416807163,9.937539807425724
836.0,7.337199805177775,6.640140871454798
837.0,6.513603836499194,6.8845865647596565
838.0,7.498583792289536,6.685995279307631
839.0,6.097836349331235,7.997600314712825
840.0,6.876612903225807,8.877242328874903
841.0,7.608811959087332,7.556490952006294
842.0,7.097088906372933,14.283752950432731
843.0,5.95851512767327,14.99942779486446
844.0,6.012302410414133,12.15628352764466
845.0,6.029754667048136,10.101351834632716
846.0,7.636491360724248,29.209605893712897
847.0,10.495833631356842,30.371091208817408
848.0,15.025177025963808,27.374096137274737
849.0,12.060582218725413,18.20711101120228
850.0,8.758364242628602,11.774793001386234
851.0,6.978951706567756,10.29062230714473
852.0,6.61942977033457,8.409980892435652
853.0,7.168487505151548,6.749443632685175
854.0,6.757054812483608,6.74336667790641
855.0,8.1811387733693,5.705016672286538
856.0,6.020043273013375,6.992293282379829
857.0,7.083773556629575,13.9713386534787
858.0,12.336930051328164,15.26537034955603
859.0,16.977220786032746,14.687216664793375
860.0,16.409501330036342,10.008354876175488
861.0,15.715964182683301,6.934284964969466
862.0,14.965808699561649,6.774193548387096
863.0,10.558828818702931,6.271421078266082
864.0,8.951303810273124,6.4344048555692925
865.0,10.33947678992919,8.976726237308455
866.0,9.959158517852458,8.503724101757147
867.0,8.819469109437637,10.835260949383688
868.0,7.762960361170431,12.751578247349293
869.0,7.822166647933759,11.351467723202578
870.0,9.611378367239892,10.415181147203178
871.0,9.734382376081825,11.726829268292683
872.0,7.640279494960848,10.839998501367502
873.0,6.5139185493237415,9.390506163126147
874.0,8.598403956389793,8.468734779513692
875.0,8.440747817616426,7.632010790153984
876.0,6.352553295118204,7.2086096437001235
877.0,6.879195234348657,6.71966580495298
878.0,5.858952455884006,5.489633209696152
879.0,6.912195121951219,7.082758233112284
880.0,7.273713985987786,6.766351953842118
881.0,6.649445505975796,9.892223970626803
882.0,7.38436176988498,11.614813982241206
883.0,6.981581806601476,8.33029485594395
884.0,10.888921359259676,7.701592297028961
885.0,8.94642763478326,7.523101419954291
886.0,13.641978569555281,15.740307594320182
887.0,11.876288823948148,10.829063167359784
888.0,10.514930126259788,7.05391330411
889.0,8.257465063129894,8.812558540331947
890.0,7.512210108276198,8.236649057734816
891.0,5.802053126522049,7.634296204713198
892.0,6.803484320557491,5.924521374246
893.0,7.655428796223447,4.54720692368214
894.0,6.887903225806451,3.782258064516129
895.0,6.94758064516129,3.2387096774193544
896.0,18.960208497246263,5.13566089693155
897.0,21.211467348544453,11.587785208497245
898.0,17.79235041774381,18.21580120639916
899.0,16.50061069274287,15.803868345135063
900.0,21.711595668952082,21.30112772095463
901.0,19.450979730995467,15.747319321119479
902.0,14.75626585217733,10.950471546458044
903.0,15.268845151183266,11.140525571288293
904.0,10.943657430036952,10.482900472504888
905.0,12.953221319267097,9.755986034836237
906.0,9.379913271000676,7.128069822333632
907.0,8.511723052714398,4.931864673485444
908.0,12.033595594020456,6.7330448465774975
909.0,23.080055074744294,25.05157356412274
910.0,17.03333988985051,23.323583792289536
911.0,11.609871370281594,24.501617477540115
912.0,9.912488792929938,87.2370400526961
913.0,8.544757378368981,114.03787486505773
914.0,11.305577613915673,71.30401807769016
915.0,9.654047658256026,44.3936298098915
916.0,7.991765014424337,27.328697875688434
917.0,7.16930800644412,25.83264770896557
918.0,8.306451612903226,25.679109062980032
919.0,10.515745007680492,29.477803379416283
920.0,9.833832565284178,30.97115975422427
921.0,7.960829493087557,26.962365591397848
922.0,9.333333333333332,22.71121351766513
923.0,9.341167434715821,20.887864823348693
924.0,8.568817204301077,17.036866359447004
925.0,11.967382263684387,14.737158592784084
926.0,12.427316323854482,13.133556254917387
927.0,10.120570604323554,9.799650631298938
928.0,8.081784121988685,6.916200217301711
929.0,6.015853658536585,4.448269079464988
930.0,5.343882769472856,3.3168961447678993
931.0,9.34083398898505,18.473996852871757
932.0,11.110739575137686,27.771675845790718
933.0,17.14655782848151,36.85822187254131
934.0,27.35916601101495,34.02991738788356
935.0,23.033296433864564,20.287061094541926
936.0,19.51076608437824,12.63510073947058
937.0,14.98178473189726,13.378514271424999
938.0,10.738473011109921,11.274422176972816
939.0,9.576347048434583,8.446691812325904
940.0,6.833934964577381,7.46865723399491
941.0,6.96996287399376,7.043852426521264
942.0,7.722190464528488,7.041541007068974
943.0,7.257869425812631,6.6323984105112315
944.0,6.551249350799238,8.59561923447895
945.0,6.221836228287841,7.41896490606168
946.0,6.411225333805978,10.364397967623773
947.0,5.980337941628264,6.98179723502304
948.0,6.568925855157169,4.458502866134652
949.0,4.736843879959537,5.015887377767786
950.0,5.564389681915252,8.007137237270989
951.0,5.707598066764078,7.611633134764527
952.0,7.446656176239181,8.53300550747443
953.0,6.323886328725038,8.558717357910906
954.0,10.389716571128846,8.744061668727287
955.0,19.592803754074406,9.874450189202353
956.0,16.343409517105115,10.250807437555338
957.0,11.195840703253017,9.498080370083352
958.0,8.054986403853851,8.910637727284378
959.0,7.193661573288059,7.745169375050528
960.0,7.436364711937198,9.347407661561457
961.0,8.057478176164249,9.824969090704732
962.0,9.968370424487654,10.874389307257127
963.0,10.285394889663182,12.206146266531789
964.0,11.23019744483159,9.961196658049529
965.0,10.306758832565283,10.997514143344198
966.0,9.320967741935483,12.519571203776554
967.0,8.05950039339103,11.985660896931549
968.0,6.077183320220299,10.611093627065303
969.0,7.565735641227381,9.801612903225806
970.0,7.466162751489266,11.638133640552995
971.0,7.493949271289948,10.989247311827956
972.0,7.7009478850548865,10.810910044584316
973.0,6.5339252931699825,11.337342175265071
974.0,6.964602300400884,9.717844966468098
975.0,8.278614514255741,9.945558427934511
976.0,7.895156246847828,10.216930224247298
977.0,5.885028949545078,7.957796347371485
978.0,6.314557485525228,10.021064072303254
979.0,8.275827129859387,8.569806229700013
980.0,7.2162353775257,7.424860872146473
981.0,8.028878648233487,7.440056573376793
982.0,9.904289835525084,11.782970851597916
983.0,7.6182739500206065,12.43221123225057
984.0,10.023307481922746,12.26975384961223
985.0,7.465493986737102,8.960606571503504
986.0,7.807963358435427,7.1028249222584385
987.0,8.461379303885204,9.24426773069574
988.0,6.773796410775167,9.204276722490727
989.0,6.951554831216514,9.69653347570342
990.0,7.963680641414709,9.905121576561388
991.0,9.87586077704095,10.466801543591473
992.0,9.383245288674086,11.447532876250422
993.0,10.655524334045182,9.690740324453936
994.0,11.610138248847926,7.3769201228878645
995.0,8.25526113671275,8.332488479262672
996.0,7.675115207373272,7.35837173579109
997.0,6.671676710386388,8.56107172397495
998.0,6.034763086375989,7.678769348930639
999.0,6.593935437759198,8.652042030877594
1000.0,7.080612018456236,9.651870552736014
1001.0,6.6588103739952675,8.862333313159432
1002.0,8.471376119291147,7.848394589936682
1003.0,7.493986737102394,8.496909070473192
1004.0,7.020681128470271,7.179910831366378
1005.0,12.446405155295793,6.84740174590686
1006.0,15.4769397924394,6.584597804503391
1007.0,23.54906897456071,8.44506387921022
1008.0,16.990937019969277,17.36036866359447
1009.0,18.812766475591026,24.24390431231501
1010.0,18.28779457495036,25.194982391068148
1011.0,17.30317148102357,30.584991195534073
1012.0,16.830561734510283,18.572840684038603
1013.0,17.551909318793115,19.67223391213657
1014.0,16.901839789215597,29.77254496550967
1015.0,14.34579082488392,28.53276380941925
1016.0,10.137589711016604,19.702559699158236
1017.0,16.176446768486546,17.425548416720904
1018.0,19.215288687154366,22.512144782711356
