time,emg_right_hand,emg_left_hand
0.0,69.41463414634147,23.609756097560975
1.0,40.90011614401858,20.044521873790167
2.0,25.90071422783521,12.470908045577843
3.0,26.766365052354843,13.235630103809346
4.0,16.174126284184286,8.556972866910106
5.0,10.482065202711828,12.782476542480566
6.0,8.915763784151613,12.486860391055952
7.0,7.195459143531528,12.499494211531978
8.0,6.099509197856955,11.967254879922072
9.0,6.3899067101270095,10.008523472331497
10.0,6.899441759394552,9.396950282866884
11.0,6.418230864336293,10.495710164474916
12.0,5.53317597692106,12.400621932486604
13.0,6.631523734592185,12.159023640927654
14.0,7.435577535498856,10.351017196807913
15.0,6.479311465497036,8.654466752576646
16.0,6.378129375549462,7.387665731763952
17.0,7.73351787424208,6.132857256125878
18.0,9.055455501506039,5.807539864060091
19.0,23.983349495910566,7.361096371653889
20.0,24.06215578284815,14.003147128245477
21.0,16.433202202989772,12.745239968528718
22.0,10.717387883556254,8.315027537372147
23.0,9.231392604248622,8.207789142407552
24.0,7.642951239686094,7.71878492606266
25.0,6.047911497105045,7.236497105045492
26.0,7.347746071133168,5.913006617038874
27.0,10.042824648469809,5.615777502067824
28.0,15.282299421009098,5.60748552522746
29.0,13.501612903225805,5.163709677419354
30.0,11.26290322580645,6.530645161290322
31.0,8.537096774193548,6.633064516129032
32.0,6.47983870967742,5.450806451612904
33.0,5.337158808933003,4.592514474772539
34.0,5.088337468982631,4.257547559966914
35.0,6.7754283351057545,5.23370849580527
36.0,8.330955334987593,5.212725983693725
37.0,7.702977667493796,5.016945210572276
38.0,7.37642089093702,5.1507980218051035
39.0,8.025326889213591,3.9719568393840623
40.0,6.544715447154472,3.7984339290397515
41.0,7.798778614514255,3.4147315574538233
42.0,7.537862950058072,3.329316998239107
43.0,10.230913041849313,4.43117155595519
44.0,11.082805065377842,5.040133378292308
45.0,14.084731744782886,5.421868794724813
46.0,13.396762953804654,5.204713199205725
47.0,11.641733168483759,5.1047169457869686
48.0,9.354201790865835,5.597804503390655
49.0,11.854048181034806,5.122112322505712
50.0,12.669240567981717,6.471653366303248
51.0,11.034697088906373,5.943430369787569
52.0,11.501140833988984,5.304760031471282
53.0,11.009028324154208,6.2176829268292675
54.0,8.91298190401259,6.478599527930763
55.0,8.127222659323367,7.948190401258851
56.0,8.503933910306845,7.2547403619197475
57.0,7.646466541588493,6.675209304202223
58.0,6.197190784562933,5.919902055720309
59.0,6.57198248905566,7.820031673021445
60.0,5.525723738626964,10.171856906534327
61.0,8.916087675765095,12.40004135649297
62.0,11.004032258064516,12.050806451612903
63.0,8.884421715184892,9.969453186467348
64.0,8.035655853456797,9.395241481571144
65.0,7.3504892170509795,9.800443321430734
66.0,6.059115576267425,8.7848105670883
67.0,6.6484012185035,7.555062639956424
68.0,6.199495652524764,9.014352720450281
69.0,7.242014162077105,8.75159323367427
70.0,6.500730583342699,7.700086171368626
71.0,6.253591098122962,8.740759057360158
72.0,5.870491926117418,8.861743658911244
73.0,9.022972162901354,8.027252631973324
74.0,12.611309055486867,6.532705780974861
75.0,13.1186345584654,6.5735725525458015
76.0,12.733914053426247,7.000899179498708
77.0,10.716188977557977,9.872953429995128
78.0,10.993421003334456,8.507287100520774
79.0,10.413626315986662,7.809347720205313
80.0,8.990991345397324,9.733398898505115
81.0,8.8801730920535,10.358634933123525
82.0,6.804602675059008,9.530527143981116
83.0,6.755645161290322,10.056451612903226
84.0,9.951612903225806,9.056451612903224
85.0,12.063709677419354,7.555645161290322
86.0,9.92741935483871,7.357258064516129
87.0,8.988709677419354,5.820161290322581
88.0,9.080645161290322,8.457258064516129
89.0,7.426612903225807,9.578101736972705
90.0,5.694354838709677,7.875744416873449
91.0,5.856451612903225,6.310856079404466
92.0,5.4322580645161285,6.761476426799007
93.0,5.52765538945712,6.223352296798401
94.0,7.557990521149451,5.594838147690233
95.0,7.322946873477951,5.756830954254243
96.0,7.705425049642201,6.645754186804541
97.0,7.056056348581919,6.896392042261437
98.0,7.124015585777977,7.570934022704282
99.0,8.444571203776555,9.996774193548386
100.0,6.677124311565696,10.167309205350117
101.0,6.998269079464988,11.484343036978757
102.0,6.12457007980218,10.063159866621707
103.0,5.731717641954042,10.16911126736388
104.0,6.395138353403682,9.422422330321256
105.0,6.840829545365436,8.872347877910244
106.0,6.373601240031261,8.638376928726956
107.0,5.795488941921891,8.573946622544138
108.0,7.002697538496122,7.508617136862612
109.0,5.803135888501742,8.081525607882806
110.0,5.617623918174665,6.624704956726987
111.0,5.035405192761605,7.381117230527144
112.0,5.870180959874115,9.683870967741935
113.0,5.888276947285601,10.589771833202203
114.0,7.8284815106215575,9.032494099134539
115.0,7.348308418568056,11.115145554681353
116.0,7.27741935483871,9.957985837922894
117.0,7.534461054287962,12.025806451612901
118.0,7.136287512644712,12.244722940316962
119.0,6.362456445993031,9.614100258514105
120.0,6.444869056985501,8.928627627290098
121.0,6.622157281480648,9.545427297590948
122.0,5.65332883743584,9.14132104454685
123.0,6.557865947323068,10.236446742347606
124.0,7.215091229253306,9.587538870780413
125.0,7.741748154808736,10.557060432355478
126.0,8.00067438462403,13.619160016484956
127.0,9.526919186242553,10.967067550859841
128.0,11.512906972387697,10.817878685699299
129.0,11.615207373271888,11.01689708141321
130.0,10.13594470046083,10.337941628264208
131.0,10.490015360983103,8.602150537634408
132.0,7.877130868082875,6.74731182795699
133.0,6.562605372597504,8.298003072196622
134.0,5.558798846052977,9.156374807987712
135.0,7.169030759432019,8.176344086021505
136.0,8.295279307631786,11.185798583792291
137.0,8.201234498520101,10.181992993893072
138.0,7.366746281518115,10.028496496946538
139.0,7.936805477501779,7.4453851485519476
140.0,8.11955340751564,8.665936083323967
141.0,8.478569555280806,8.076833014873927
142.0,7.390974485781724,8.181273650294106
143.0,7.437038702184257,7.790041587051816
144.0,6.831029185867895,8.068899629088456
145.0,7.422989022516953,8.181578060020232
146.0,8.13826758083249,8.473436738975686
147.0,7.466205837173579,8.68491251732794
148.0,6.9614476789929185,6.726986624704957
149.0,6.765538945712037,5.458693941778128
150.0,6.123524783634933,6.333595594020457
151.0,5.600314712824547,6.185680566483084
152.0,4.897246262785208,8.420613690007867
153.0,5.982690794649882,11.357828481510621
154.0,6.227458693941778,12.422187254130606
155.0,7.140165224232888,8.726514555468135
156.0,5.795967741935484,11.077419354838709
157.0,6.137551695616212,11.296608767576508
158.0,8.87764681555004,10.945078577336641
159.0,8.037613730355666,14.498345740281223
160.0,8.006306865177834,14.624979321753514
161.0,7.531290726058625,13.305723335148983
162.0,7.287745869394177,9.879071597167584
163.0,7.686134839458993,8.637922895357985
164.0,7.8563738713424,7.970456333595594
165.0,8.751938855794087,7.205312652204863
166.0,8.7323817016972,6.769847514143343
167.0,7.595444157206549,8.47647146978382
168.0,5.828444044809111,7.926791802480237
169.0,6.108557191562699,8.92602375332509
170.0,5.590760930650781,9.246037990333821
171.0,5.223783297740811,8.00500168596156
172.0,5.696849701570394,8.617560514492066
173.0,6.9224572961787745,8.079583149606753
174.0,7.267050835343518,11.080861598406837
175.0,6.104262744860699,8.75533095281325
176.0,6.584782827977163,7.2622445480037925
177.0,5.974783634933123,8.45428796223446
178.0,5.709579071597167,8.221715184893785
179.0,5.287450826121164,7.6406963021243115
180.0,6.499370574350905,6.79897718332022
181.0,7.384921019185377,5.516031188847869
182.0,6.035104097318888,4.679730779317719
183.0,5.861562670217273,4.1121018176683
184.0,5.43158778672154,4.217233048881358
185.0,5.3541003449736735,3.8316003954084206
186.0,6.488996290884568,3.9604061294069157
187.0,6.3912329998876025,3.8035704919261173
188.0,6.842744745419804,3.982430407253381
189.0,7.280931774755535,3.4180444719193734
190.0,6.499887602562661,3.9684537859203477
191.0,5.41778127458694,4.209284028324155
192.0,4.904956726986625,3.8004720692368217
193.0,4.825963808025177,3.6140047206923684
194.0,9.528245476003146,11.805822187254131
195.0,9.033359559402044,15.3014948859166
196.0,7.846240593919585,14.65938187173435
197.0,6.328765458250116,10.732916742318789
198.0,7.047850471060541,9.491458371159393
199.0,33.529983457402814,7.154383788254757
200.0,95.62224979321755,8.507030603804797
201.0,53.82096774193549,8.212903225806452
202.0,36.26532258064516,7.404838709677419
203.0,28.82177419354839,7.300806451612903
204.0,16.420967741935485,7.7588709677419345
205.0,12.703060380479736,9.15533498759305
206.0,10.1345947063689,9.85347394540943
207.0,7.378990901571547,9.465446650124068
208.0,7.454818031430935,7.764578163771711
209.0,6.564102564102564,8.048014888337468
210.0,5.916129032258064,7.312096774193548
211.0,5.364162077104642,9.504405979543666
212.0,8.45428796223446,8.33324154209284
213.0,7.920730770671762,9.266390356299876
214.0,7.6752847401745905,10.589243565246711
215.0,7.1348394589936674,9.69324491401596
216.0,6.941497133865347,9.721561575062756
217.0,6.568927728447791,9.770450713723728
218.0,6.1389185493237415,8.728927353789668
219.0,5.896219699524184,11.261473905061631
220.0,6.086527293844366,12.973773931287699
221.0,7.187272863512044,14.267224907272112
222.0,6.94035442658574,12.213367801880784
223.0,6.682926829268293,10.626653178974184
224.0,6.635719905586152,9.170525645348619
225.0,7.207036079577385,11.627552358472894
226.0,7.378479637330935,10.026525795211867
227.0,7.08105728522723,13.15803079689783
228.0,5.740923906934922,10.789479599865123
229.0,6.291521486643438,13.144393241167435
230.0,6.520662395564047,9.529710389269791
231.0,5.945449777078416,10.693117530253645
232.0,6.463976621333034,11.784309317747557
233.0,6.734191300438351,9.291525233224682
234.0,7.545667078790604,9.388850174216028
235.0,6.6091828706305495,12.36200966617961
236.0,7.962734629650444,10.070068562436775
237.0,6.60924749915702,12.149857629912702
238.0,8.807406991120603,10.571840695365479
239.0,7.9707017346671165,12.506874976583866
240.0,7.358735154171819,12.450039339103068
241.0,6.6407365778726914,14.458851298190401
242.0,6.318916488704057,12.275133940279495
243.0,6.949387433966505,9.908613390281367
244.0,8.55719343598966,10.364332546551271
245.0,7.648028361620021,10.117650144243377
246.0,8.199955041025063,10.183804393875203
247.0,7.226256041362257,8.099376626520607
248.0,6.095032033269641,9.592174544574231
249.0,6.09514443070698,8.799206301173257
250.0,5.150874826720617,9.805901153658825
251.0,6.732426660672136,7.21204900528268
252.0,6.941351017196808,5.634348656850623
253.0,7.3830991720055446,5.1470608070136
254.0,7.418142819677045,6.571956839384062
255.0,6.77358753887078,7.437668127833352
256.0,6.324116743471581,7.7956239931062905
257.0,7.1246075456146265,9.018425686561013
258.0,8.96744970214679,9.27265370349556
259.0,8.185946573751451,8.574882919336106
260.0,9.414401858304297,8.64996066089693
261.0,7.87163837997827,9.356451612903225
262.0,6.929751601663481,8.374807987711213
263.0,6.414015960436102,7.737121126971639
264.0,7.081431943351691,7.1577310703982615
265.0,7.426660672136674,7.5059008654602675
266.0,7.146925930088793,9.333595594020457
267.0,6.509752350979731,9.75785845416058
268.0,6.6841969203102165,7.995223108913117
269.0,6.3770072309018015,6.609971525982541
270.0,7.670070435727398,5.279256116293881
271.0,7.7780525270690495,4.688359372072983
272.0,12.465186767075044,5.213573863849238
273.0,11.812086471095125,5.037278483383912
274.0,9.99927690981979,5.517852459630587
275.0,9.797564722191,4.951322543179349
276.0,7.533400771795737,5.451192349481099
277.0,6.2183132891236745,4.463096174740549
278.0,5.950708103855232,4.92663257277734
279.0,5.450806451612904,4.676612903225806
280.0,6.1309346567411085,4.82191894127378
281.0,5.482402812241522,4.999669148056245
282.0,7.675475599669147,5.1909636062861875
283.0,6.569189412737799,5.218465674110835
284.0,6.028949545078577,4.7177005789909
285.0,6.387096774193548,4.562903225806451
286.0,7.0555271439811165,3.7082022029897717
287.0,6.543214004720692,3.9712037765538946
288.0,7.545819751976322,6.865594207785396
289.0,24.34235322767974,6.839081525607883
290.0,20.433666779064104,8.018508111348394
291.0,13.018433179723502,7.624105503727847
292.0,9.92467498407703,6.053501180173091
293.0,7.406653928290435,7.46761080514031
294.0,6.953317597692106,6.562249447379266
295.0,5.732756359821662,5.9172380203064705
296.0,7.058851298190401,6.03127646023004
297.0,6.503780300475816,5.763268517477801
298.0,6.306728859915327,5.331557453823386
299.0,7.650983477576711,6.45786782061369
300.0,6.379071597167584,6.483929976396539
301.0,5.997600314712825,7.116561762391818
302.0,6.721774193548387,7.07016129032258
303.0,6.233792289535798,5.354897718332022
304.0,5.6325909338497855,6.486598983235489
305.0,6.372747079828118,7.590476910972583
306.0,6.320244507655994,7.245238455486292
307.0,5.608509350602191,7.045603098710887
308.0,5.1372208436724565,5.927915632754343
309.0,5.330487804878048,7.549232887490165
310.0,6.293469708890637,8.048406766325726
311.0,6.916896144767899,7.783477576711251
312.0,6.512745869394177,6.903206136900079
313.0,6.478756884343037,10.21014948859166
314.0,5.62789142407553,11.641817466561761
315.0,5.416129032258064,12.694807238394965
316.0,6.615420928402832,14.698505114083398
317.0,7.646008017683863,15.202536435502603
318.0,8.094129107189689,15.41346333970252
319.0,8.94210782660822,14.711078640740325
320.0,8.184261764985605,11.768347728851271
321.0,10.379148978480213,8.174260410452385
322.0,11.41223193931691,11.980601787407453
323.0,9.711357905142325,9.778204119510178
324.0,8.597063688999173,9.257237386269644
325.0,8.425,9.412903225806453
326.0,6.966935483870968,6.897580645161291
327.0,6.833064516129031,6.729838709677419
328.0,6.138709677419355,7.199999999999999
329.0,5.832609594706368,7.122291149710504
330.0,5.893320926385442,9.561952026468155
331.0,6.583354011579818,9.510008271298595
332.0,5.684015715467328,10.334842845326715
333.0,6.417411083540115,13.908147229114972
334.0,7.105645161290322,12.129838709677419
335.0,6.513709677419355,11.820967741935483
336.0,5.60483870967742,9.67016129032258
337.0,5.4433123524783635,7.51485051140834
338.0,6.006038552321007,7.370259638080252
339.0,5.704228953579858,7.829484657749803
340.0,5.337195121951219,6.850806451612903
341.0,6.292604248623132,8.313453973249409
342.0,6.069984264358773,6.509598741148702
343.0,5.887077104642014,10.459756097560975
344.0,6.259225956314863,8.917013225431793
345.0,6.989172380203064,8.766925180772546
346.0,6.320864710951257,9.865602637593195
347.0,5.861061781124723,11.050031845940579
348.0,6.085920347682739,9.916046607470683
349.0,5.375295043273013,10.245043273013374
350.0,5.359166011014949,10.18389063729347
351.0,5.831887152972913,9.757517515267319
352.0,5.321136338091491,8.952716271402345
353.0,5.983148814207036,9.417742872129182
354.0,6.909220336442996,10.401670975235099
355.0,7.194185305908359,10.992731632385448
356.0,8.214604173691507,9.633846614963847
357.0,6.59746731107864,8.611179798433929
358.0,7.455940204563336,8.890131505001687
359.0,7.73219437263497,7.7992581769135665
360.0,7.6420516278895505,8.174384624030571
361.0,6.047753924543853,9.617683863474578
362.0,5.846850998463902,9.176426510808886
363.0,5.219751976321606,9.752332246824771
364.0,5.811104866809036,9.926913566370686
365.0,5.803171481023566,11.662765538945713
366.0,5.596865048143568,13.006058221872541
367.0,7.930440972612491,12.076992244576825
368.0,6.469941178674459,12.866033494436328
369.0,7.333664905773481,10.08125023416133
370.0,6.178299801431194,11.461061781124723
371.0,5.482540931400097,10.611726799295642
372.0,6.707092278296055,11.320840358173166
373.0,7.07935259076093,9.45477501779626
374.0,6.714023453598591,10.28575924468922
375.0,6.814750290360046,7.2335656213704995
376.0,7.213133640552995,7.401766513056836
377.0,6.536543216814657,8.693802217976097
378.0,6.881329921062415,9.263681506010382
379.0,6.872846220131822,9.189905269134222
380.0,7.338727257531349,7.929591651464193
381.0,5.922205410639714,8.409265871815045
382.0,5.730024813895781,10.649007444168735
383.0,7.44516129032258,7.10241935483871
384.0,12.17983870967742,8.925806451612903
385.0,11.9,8.975806451612904
386.0,10.430645161290322,9.996774193548386
387.0,13.383870967741935,6.791935483870968
388.0,11.366561762391818,5.979071597167584
389.0,21.763926042486233,6.042761605035405
390.0,15.120442283915924,6.711127346296504
391.0,10.51465662582893,7.725801768386347
392.0,8.722766100932898,7.843411636881346
393.0,7.295199692780338,7.365975422427034
394.0,6.384549098947211,6.943314225768985
395.0,6.544041062530441,7.591472781087257
396.0,6.548967816867108,5.541924244127234
397.0,6.619965531452548,5.086789554531489
398.0,7.820044209658686,4.226728110599078
399.0,6.853688509235322,3.8018770372035515
400.0,5.975845790715972,4.323288749016522
401.0,6.353461841070024,4.554248623131393
402.0,6.5008064516129025,11.000806451612904
403.0,7.023738626964433,12.10109594706369
404.0,8.913482216708022,10.23966087675765
405.0,7.483354011579818,13.130314309346566
406.0,7.0572847949323165,12.556207508725212
407.0,6.442627448606991,8.973992818091952
408.0,10.488355625491739,11.630664830841857
409.0,9.619254617661383,11.052870817878686
410.0,7.059608107601813,7.645348619384811
411.0,7.02311640627927,5.987111760518527
412.0,6.639803679142782,5.9093701996927805
413.0,6.462702783709865,5.091585178524595
414.0,7.347326814281967,6.300554494024203
415.0,7.05837922895358,5.592289535798583
416.0,5.997324940991345,5.52258064516129
417.0,7.983713611329661,4.492604248623131
418.0,8.209008654602675,4.1207317073170735
419.0,9.490050233008533,3.8964287155278496
420.0,7.684579647994282,4.056989319361467
421.0,7.903910998521542,3.7805314669594763
422.0,7.61238036157391,4.194514356611131
423.0,7.34545669384379,4.272929221316318
424.0,7.7929546980687805,4.3915433897337905
425.0,7.388965453638939,4.405936169783534
426.0,7.077232025776478,4.763893259900341
427.0,6.638923232550297,4.962534187553857
428.0,7.018957701097748,5.26896706755086
429.0,16.794687347795136,6.052114945112584
430.0,13.680004495897494,5.375744633022367
431.0,10.232550297853209,5.1621145704544595
432.0,7.222112322505714,5.181978944213405
433.0,7.14162826420891,9.874961597542242
434.0,7.167194934622157,7.862249447379266
435.0,5.934211906635195,9.655779101569816
436.0,6.772686486081451,7.139829905211494
437.0,6.477108388595406,6.079277659136038
438.0,6.130950507661758,5.45438537334682
439.0,6.707725450526395,4.232385448278446
440.0,6.310467947997452,3.5693417256753213
441.0,6.01353452474617,3.8260555992656697
442.0,6.9363502678805595,3.7957972724888536
443.0,5.967157468809711,3.4619347345547187
444.0,5.136804540856469,4.042257689858005
445.0,5.41548368363868,5.957150350305346
446.0,6.497853208946836,7.741939230452212
447.0,5.741452174890412,9.071599040875201
448.0,5.654213030609569,9.65853377542992
449.0,6.0920947135738635,9.400637855456894
450.0,5.773938780862463,8.981701697201304
451.0,5.488198269079465,6.649606608969315
452.0,5.2032167281970585,6.852673545966229
453.0,5.910990740180354,7.116728197058645
454.0,4.840231798099618,7.567412092235067
455.0,4.512641469466804,7.142793378926346
456.0,5.190594928281788,7.125025721721237
457.0,8.206215578284816,8.518095987411487
458.0,7.068489378442171,10.634343036978757
459.0,5.989791502753737,11.003245476003148
460.0,6.694492525570417,10.553638867033833
461.0,5.984598741148702,12.099783634933125
462.0,5.923839496459481,11.254130605822187
463.0,6.831313926042487,8.445318646734854
464.0,5.48961447678993,8.547600314712824
465.0,5.047956239931063,8.278408452287287
466.0,8.053089056236185,9.448802967292345
467.0,7.505413809898468,9.828706305496233
468.0,7.33201453673523,11.955423176351578
469.0,6.642575284668125,14.465496292325561
470.0,6.497247703777996,15.941273491784898
471.0,6.479623065106936,13.991486470518728
472.0,6.21193134822167,12.521319272125723
473.0,6.474110835401158,10.953804797353184
474.0,5.193548387096774,11.555645161290322
475.0,6.108064516129032,13.191935483870967
476.0,6.715322580645161,12.531451612903226
477.0,5.947808105872622,9.528763440860216
478.0,11.252129859387924,10.081720430107527
479.0,9.678081058726221,9.513440860215052
480.0,8.351943755169561,6.748655913978494
481.0,8.600165425971877,7.234408602150538
482.0,10.267741935483869,7.548387096774194
483.0,8.92527537372148,7.606372934697089
484.0,7.241955153422502,7.811428009441385
485.0,6.440794649881983,8.544059795436663
486.0,6.0871164437450815,7.695377655389456
487.0,5.545689558278071,7.481847813869843
488.0,7.586265033157243,7.683413884830093
489.0,6.9500955378217375,7.425499231950845
490.0,7.106889962908846,5.507249634708328
491.0,6.98420816005395,6.822074856693268
492.0,6.945374845453523,6.730189951669102
493.0,5.751489266044734,6.605110336817654
494.0,5.1484432954928625,6.567149975647222
495.0,6.3546363942902095,8.00999587876063
496.0,6.428301674721816,5.926319733243416
497.0,6.162616612341239,6.78338016559889
498.0,7.018174665617623,7.2090479937057435
499.0,6.415538945712038,8.673072383949645
500.0,6.544059795436664,7.180487804878048
501.0,6.197598297322923,5.5112328269684685
502.0,6.964495450785773,8.542555831265508
503.0,5.382650951199338,8.290632754342433
504.0,5.759470636889992,9.59652605459057
505.0,5.55373217131675,8.644919203534466
506.0,4.9402242328874895,9.912037765538944
507.0,6.437588512981904,10.725708103855233
508.0,5.181294256490952,11.220515342250195
509.0,6.5453579858379225,9.009992132179386
510.0,6.257936195721404,7.884168820950881
511.0,5.626460230040088,6.975542317635158
512.0,5.618501554831216,7.808384848825447
513.0,6.911842943314225,8.620321456670787
514.0,6.690382525945075,10.492694166573003
515.0,7.730695740137125,10.7639653815893
516.0,8.128133078565808,12.45712037765539
517.0,7.509778577048443,14.043666404405979
518.0,6.494885916601101,13.301337529504327
519.0,6.133309124654522,12.660755714256894
520.0,7.429833161855191,11.431951421251185
521.0,6.998551514051121,10.833678307006394
522.0,6.7306683612741836,10.729506344691238
523.0,5.624028122415218,8.647601323407775
524.0,7.479838709677419,11.084677419354838
525.0,7.650806451612903,10.435483870967742
526.0,7.370161290322581,9.554032258064517
527.0,7.103225806451613,10.216129032258063
528.0,6.627936311000827,8.625330851943755
529.0,6.184532671629445,7.3856492969396195
530.0,5.659595210716375,5.624453287336843
531.0,5.786652444067865,7.845694385603905
532.0,5.673568157517803,10.30228267667292
533.0,7.119158143194335,10.564181746656175
534.0,6.914476789929189,11.826003147128247
535.0,6.1425255704169945,10.757218725413061
536.0,7.313236671537223,8.719219961784871
537.0,9.010228166797798,8.50500168596156
538.0,9.013375295043272,11.192312015286051
539.0,7.151586677157093,11.176463976621331
540.0,7.261904761904762,10.141414709077967
541.0,7.12088344385748,11.230339814918885
542.0,6.474804241129968,9.276460230040087
543.0,6.0083698625004685,6.519189989134913
544.0,6.266707879060357,6.653857105391331
545.0,5.706702633846615,7.087681240867708
546.0,7.1142482484732685,6.186641564572328
547.0,7.224699336855119,5.479771271215016
548.0,6.630583342699786,5.493986737102395
549.0,6.030476565134315,6.021580307968978
550.0,6.002104642014162,5.830605822187254
551.0,6.288434303697875,7.0185680566483075
552.0,6.148544453186467,8.667820613690008
553.0,5.595515342250197,10.376396538158929
554.0,5.328992918961447,9.21140833988985
555.0,5.967427222659323,8.12667191188041
556.0,6.061605035405193,7.595594020456334
557.0,6.785326514555468,8.140833988985051
558.0,7.452773406766325,6.472383949645948
559.0,6.804248623131393,8.23068450039339
560.0,6.443036978756885,7.086624704956727
561.0,5.7907553107789145,6.58855232100708
562.0,5.481530291109363,9.913473642800945
563.0,5.359716758457907,10.101494885916601
564.0,5.413532651455547,8.956726986624705
565.0,5.656037615675697,8.007174703083436
566.0,6.160902551421827,8.439408414821475
567.0,5.124904462178262,7.892324191675097
568.0,4.755085984039564,7.823768311415833
569.0,5.398392716646061,7.372545052639467
570.0,6.7587969727623545,7.302017534000225
571.0,6.937155782848151,8.438335955940204
572.0,6.033044846577498,8.21424075531078
573.0,6.145318646734855,8.264712824547601
574.0,5.427104642014163,9.72346577498033
575.0,6.385444531864674,10.850629425649096
576.0,6.099449252557042,11.41447678992919
577.0,5.799921321793864,9.292210857592446
578.0,6.812863886703383,11.376750590086544
579.0,6.967899291896145,10.910621557828481
580.0,6.298269079464989,7.9836349331235255
581.0,5.777301337529504,7.877261998426436
582.0,9.497526319733243,6.083717357910906
583.0,10.632576523921921,8.529339477726575
584.0,10.03658723914428,8.829185867895545
585.0,16.281472219100074,8.348053651043422
586.0,24.92815930463452,6.184856318609269
587.0,30.36845753250159,4.877374395863774
588.0,23.518864036566633,4.413135513843618
589.0,15.725113334082648,5.0448278445918096
590.0,11.452418418193398,5.370724214154583
591.0,9.113971001461167,5.664961972200366
592.0,7.263946648683076,5.808324903525532
593.0,5.897137611929115,6.597261249110186
594.0,6.319527181446929,6.717507774156083
595.0,5.617136862612865,7.166795183116337
596.0,5.757820988348132,5.993311045531417
597.0,5.14326926679405,6.90499541261622
598.0,4.655351991307931,6.800423973589216
599.0,4.953797160091416,7.329165566652987
600.0,5.402705031658611,9.258806339215466
601.0,5.831171555955191,11.867247386759582
602.0,7.826679405042897,11.52371023940654
603.0,7.74129669176876,10.925449589749352
604.0,6.982646772320257,10.900637855456896
605.0,7.096296504439699,9.339278221123227
606.0,6.815083736090817,8.763590723464837
607.0,6.425952568281444,7.99674422089843
608.0,6.9744970214679105,8.77371773256903
609.0,6.370804765651343,7.523758944962722
610.0,6.953681952718145,9.131541530853097
611.0,7.307082911842944,7.9790772170394515
612.0,6.63821887527631,7.264538608519726
613.0,6.0235641227380015,8.690794649881983
614.0,6.947222222222221,9.804659498207887
615.0,5.999055693410532,8.025840915357044
616.0,5.792673007995589,9.334291425420458
617.0,6.374159084642955,10.29012958367797
618.0,6.479418251998897,10.595064791838984
619.0,7.178329197684036,9.25272952853598
620.0,6.319354838709677,10.80725806451613
621.0,4.926612903225807,8.78225806451613
622.0,6.3,9.141129032258064
623.0,6.205645161290322,7.595161290322581
624.0,7.762903225806451,6.984677419354838
625.0,6.567741935483871,6.134677419354839
626.0,5.67741935483871,8.466129032258065
627.0,6.483064516129032,8.84032258064516
628.0,6.629760031471282,7.505055074744297
629.0,6.558831628638867,8.926317859952793
630.0,6.994453186467348,11.08412667191188
631.0,6.6684500393391035,11.336841070023603
632.0,6.485300288486756,12.069553407515642
633.0,8.106143456595856,9.812510771421078
634.0,8.088344385748005,10.861151699074593
635.0,6.153534899404294,9.52616986999363
636.0,7.6818777865198005,8.15265445281181
637.0,6.332022029897718,9.171406091941103
638.0,5.296335843542767,6.41845565921097
639.0,6.610018358248098,6.454647634033944
640.0,6.138604773144506,6.1379453748454535
641.0,7.177138361245364,8.080746318983927
642.0,6.126885467011352,8.390884567831854
643.0,6.695239968528718,10.198898505114084
644.0,8.006864673485445,10.359795436664044
645.0,7.0352871754524,11.71699449252557
646.0,7.087903225806452,11.98225806451613
647.0,5.952419354838709,9.708064516129031
648.0,4.872063688999173,8.899421009098427
649.0,4.350951199338296,8.385194375516956
650.0,4.232733664185277,8.036952026468155
651.0,5.198123323044644,6.667108979402449
652.0,5.850271338941678,8.412989973572191
653.0,7.123646835723941,8.242888700599163
654.0,7.970425568399604,8.822711631405573
655.0,7.568542839274546,8.073885320030087
656.0,7.083248602957493,8.970852966860049
657.0,6.471423672053097,11.586498473988637
658.0,5.3089955415683185,11.211363380914914
659.0,5.9387883556254915,10.351691581431943
660.0,6.5173691506500315,10.784009591247985
661.0,7.293790041587052,9.966224570079802
662.0,6.56074238507362,10.572018657974597
663.0,6.950207935259076,10.059907834101383
664.0,6.175340002247949,10.289985388333147
665.0,6.702262935071747,8.96603724101757
666.0,6.1332122899392765,8.437733260707297
667.0,5.720972785410236,8.604861909661281
668.0,5.492036353366015,8.986537957190986
669.0,6.309904880066171,10.220885028949546
670.0,5.967452440033085,8.249958643507032
671.0,6.8153225806451605,10.551612903225806
672.0,7.9927419354838705,10.668548387096774
673.0,8.336290322580645,11.234677419354838
674.0,8.474214226633581,9.998821339950371
675.0,7.1520264681554995,10.303846153846154
676.0,6.356658395368073,13.618052109181143
677.0,5.200103391232424,11.13926799007444
678.0,4.539164598842019,10.993424317617865
679.0,5.834677419354839,11.315322580645162
680.0,6.1137096774193544,8.198387096774193
681.0,7.856451612903225,9.015322580645162
682.0,7.821774193548387,10.005645161290323
683.0,9.787745869394177,10.655900865460268
684.0,16.331497004175993,9.958864411224758
685.0,15.741918840404285,9.514739050616313
686.0,11.733872480784362,9.592912404930502
687.0,9.557465351328451,6.898767374770523
688.0,9.950963015479145,8.514555468135327
689.0,8.362519201228878,9.796448240980105
690.0,7.210108276197969,7.641714435577535
691.0,7.5078865535199135,5.590723464838335
692.0,8.230751938855795,5.2556479712262565
693.0,6.226462103330711,7.297834476040613
694.0,7.039114308193773,6.727642276422764
695.0,8.406653928290435,5.6575999400547
696.0,7.577048443295492,9.176164250121763
697.0,7.320744820351429,8.411412086471094
698.0,6.988067138735903,9.66912067738189
699.0,8.455247087033083,9.820351429320745
700.0,9.421827582331122,10.676744970214678
701.0,18.93986737102394,8.474092390693492
702.0,14.02603124648758,8.798965943576487
703.0,10.834416095313028,10.316870855344497
704.0,8.140991345397325,9.594256490952006
705.0,7.036945037653141,8.854226143643924
706.0,6.746245925592897,8.326011576936047
707.0,6.575699674047431,6.798696189726875
708.0,6.576598853546139,7.765988535461392
709.0,8.322636843879959,7.34002098085497
710.0,7.562998763628189,9.290472443894945
711.0,8.714622906597729,10.562624105503726
712.0,9.627964482409801,9.24787381514368
713.0,7.3863287250384015,9.507643025739013
714.0,6.32258064516129,8.303360683376418
715.0,5.2325727773406765,7.9719006406653925
716.0,5.235802330373534,8.52830542130306
717.0,5.357869693904313,7.775561050541381
718.0,7.0767281105990785,8.212225094601177
719.0,8.68621351766513,10.406419766962646
720.0,6.981491888651606,7.898036791427822
721.0,6.651792739125548,7.338541081263347
722.0,5.903787793638305,8.553220186579747
723.0,5.515379716009142,7.909220336442996
724.0,4.9355588025926345,7.530703233299614
725.0,4.8090067813120525,8.657877187066802
726.0,5.349428646360196,9.19085834176314
727.0,7.865902364092765,9.273241916750965
728.0,7.1000786782061365,7.847757671125098
729.0,6.221164437450826,6.6634539732494105
730.0,7.383162863886703,7.369630212431156
731.0,8.822187254130606,6.535877261998426
732.0,7.745869394177813,6.654248623131393
733.0,7.242289535798584,6.526317859952792
734.0,7.122482297403619,6.399665617623918
735.0,6.547305271439811,6.215912667191187
736.0,6.081235247836349,6.274429583005507
737.0,5.914732494099134,6.236742722265932
738.0,5.794610542879622,7.761014948859167
739.0,6.164624779888351,8.400284740174591
740.0,5.817166835262823,8.532951182046382
741.0,5.534861938481136,7.890787156719494
742.0,6.010153235172905,6.375369974897906
743.0,6.157262747742685,8.016335094226518
744.0,5.566258289311003,7.615151174553221
745.0,8.027949496084823,7.030557693028189
746.0,7.387066801543591,7.089157682076643
747.0,5.782833164737177,9.917120147096544
748.0,7.241646997115132,11.822384958340898
749.0,7.2172043010752684,9.522994210090983
750.0,7.041935483870967,9.146774193548387
751.0,6.780645161290322,10.729032258064516
752.0,6.3798387096774185,9.40806451612903
753.0,6.728225806451613,8.278225806451612
754.0,5.604859387923904,9.210339123242349
755.0,6.393155500413565,9.251943755169561
756.0,6.2268196856906535,8.61064929693962
757.0,5.714619520264681,9.437179487179487
758.0,5.335938792390405,8.212944582299421
759.0,5.7427419354838705,7.815322580645161
760.0,7.039516129032258,6.532258064516128
761.0,6.195967741935483,6.72258064516129
762.0,6.278225806451613,10.874193548387096
763.0,5.574193548387097,10.498387096774193
764.0,5.824193548387097,11.205645161290322
765.0,5.597084367245658,10.611248966087675
766.0,6.148512679295527,12.016501745042262
767.0,6.345961689765781,11.798229236014445
768.0,5.752416328753858,11.582582359942705
769.0,8.015045693881255,14.161560652827372
770.0,8.589771833202203,15.494335169158143
771.0,7.510857592446893,15.21294256490952
772.0,6.595712037765539,14.014417781274588
773.0,6.0657899666554265,14.689370949009028
774.0,5.892285789217339,13.356749466112172
775.0,5.21718931475029,12.125660334944364
776.0,6.535461391480274,10.72608744520625
777.0,6.247873815143681,10.625416807163463
778.0,7.409651193286127,8.864167696976509
779.0,14.338466149638453,6.447828856168746
780.0,11.109437638155182,5.852553295118205
781.0,9.520025476752462,4.913098048031172
782.0,9.397287475178898,4.450882319883107
783.0,6.7683826008767,3.461616275148926
784.0,6.352163650668764,3.4423288749016523
785.0,5.347364280094414,2.9366640440597953
786.0,5.061959087332809,2.7562942564909516
787.0,6.357258064516129,2.3556451612903224
788.0,6.090322580645161,2.451612903225806
789.0,5.760794044665013,2.4273986765922246
790.0,5.892493796526054,2.6826509511993377
791.0,6.648263027295286,2.769954507857734
792.0,6.490260545905707,4.10070306038048
793.0,6.235856079404466,4.04793217535153
794.0,5.4685483870967735,3.4040322580645164
795.0,5.876612903225807,3.1645161290322577
796.0,5.413709677419355,2.981451612903226
797.0,5.05233664185277,3.059098428453267
798.0,6.378184449958644,2.8722911497105046
799.0,7.048366418527709,3.4821133167907363
800.0,6.339102564102564,2.945492142266336
801.0,5.908329802901006,5.342612318182734
802.0,5.342171518489379,5.780900865460267
803.0,6.457376081825334,5.18198269079465
804.0,21.329974523247536,5.413533588100858
805.0,25.84881982690795,6.67379828406579
806.0,20.135829493087556,9.199193548387097
807.0,12.915629800307219,7.228917050691243
808.0,11.106683900940393,10.60363043722603
809.0,10.538364991944851,11.14705331385111
810.0,8.127795886253793,8.280750065565172
811.0,8.128470270877823,6.596942789704395
812.0,8.00116144018583,5.1392604248623135
813.0,6.255891499007156,4.35051140833989
814.0,6.554366640440597,5.331707317073171
815.0,6.605192761605036,6.035405192761605
816.0,7.568450039339103,7.735090479937057
817.0,7.1164044059795435,7.846066089693155
818.0,7.121774193548387,6.505645161290323
819.0,6.841935483870968,8.219354838709677
820.0,30.874999999999996,8.079032258064515
821.0,60.229032258064514,5.954032258064515
822.0,43.116129032258065,6.502419354838709
823.0,26.393899917287015,6.2917907361455745
824.0,39.72315963606286,5.477750206782464
825.0,24.72806290221711,5.494225221408541
826.0,15.089031451108555,5.895499707478464
827.0,10.231612499747825,6.743314369868264
828.0,8.78048780487805,6.2676042486231305
829.0,7.157985837922895,6.217269866247049
830.0,7.774193548387096,8.141129032258064
831.0,8.287096774193548,9.054032258064517
832.0,7.936624704956727,8.35763178599528
833.0,8.82142014162077,10.744590873328088
834.0,8.130468135326515,11.492859952793076
835.0,8.19604642014162,11.628835562549174
836.0,7.544217151848937,11.521793863099921
837.0,7.26345397324941,9.766404405979543
838.0,10.603833689258552,7.157433217189315
839.0,8.414109624967217,7.365928590161477
840.0,6.543741336030872,8.311340901427448
841.0,6.7357910906298,8.592933947772657
842.0,6.188115844292083,7.818103480573976
843.0,7.60460454834963,8.703233299614102
844.0,8.195402944812859,10.068262710276873
845.0,8.53049717133116,12.650106777565473
846.0,7.413922295904985,9.365553932037017
847.0,6.122213480199318,11.610168221497883
848.0,6.977707841594545,8.69800307219662
849.0,6.747311827956988,10.221542842156532
850.0,6.7036866359447,10.093874339665057
851.0,5.327059683039226,10.549297516016635
852.0,6.084795436664043,9.460582218725413
853.0,7.597409239069349,9.194269603986363
854.0,9.118138136450488,8.0585824809861
855.0,8.201978194897157,8.737739312877
856.0,9.109250309092953,6.787044322056124
857.0,8.365385335881008,6.782717020718594
858.0,8.374320932149413,7.7220036716496185
859.0,8.423588475516091,6.8940466824023074
860.0,8.100708103855233,6.84624030572103
861.0,7.590742197744559,12.398917238020307
862.0,7.613071821962459,10.986175115207374
863.0,8.958150687497659,10.766363193585853
864.0,7.0730958000824256,9.590105278932974
865.0,8.69553407515642,9.685605634858192
866.0,8.004833089805551,7.45993031358885
867.0,7.350252894234011,9.70596830392267
868.0,7.233404518376981,8.775991907384512
869.0,6.816938293806901,8.269191862425536
870.0,6.264581694204038,8.573105166535537
871.0,7.0678964819602115,10.137700910419241
872.0,7.050972237832978,11.372990895807575
873.0,6.128245476003148,10.568843430369787
874.0,5.490479937057436,9.029897718332021
875.0,5.5669551534225015,8.397167584579071
876.0,5.991793257882951,8.843341604631927
877.0,7.140664528233371,10.77351974016018
878.0,9.459553349875929,12.043093465674112
879.0,7.563186813186814,9.722391586907715
880.0,9.019496632399857,11.870873212808696
881.0,7.850691244239631,11.913517665130568
882.0,7.380007305833427,12.600071185043646
883.0,6.535568169045746,11.648422689296016
884.0,6.854189614476789,10.208005507474429
885.0,5.647659323367428,9.448760818253344
886.0,6.562558540331947,9.128854295455398
887.0,7.543970814132105,7.963325652841782
888.0,7.462173579109063,7.052112135176651
889.0,8.91593140009741,6.3310422989022515
890.0,10.22054250496422,8.392978906747594
891.0,10.944438200142368,8.886853246412649
892.0,10.853171481023566,7.107789142407553
893.0,11.375969427897044,6.347870068562436
894.0,9.44248997789517,8.710145742010415
895.0,7.351736540406879,7.503383162863887
896.0,6.347386759581881,8.06955153422502
897.0,7.243595219362332,9.763879210220672
898.0,7.3094451313176725,9.952749990633546
899.0,8.479504327301338,9.407887490165225
900.0,6.959087332808813,9.81195908733281
901.0,6.688434303697877,9.4492525570417
902.0,6.927773406766326,9.949331235247836
903.0,6.465964614981138,10.530496883132603
904.0,7.039669955012204,10.076106034013193
905.0,8.154689422824749,15.481640743206441
906.0,7.3162117452440025,13.904156327543426
907.0,8.948428453267162,11.53151364764268
908.0,6.9185483870967746,10.309677419354838
909.0,6.483870967741935,8.806451612903226
910.0,6.681451612903225,8.368548387096773
911.0,6.513709677419355,6.283870967741935
912.0,6.649193548387097,5.767741935483871
913.0,6.2095947063689,6.216852770885029
914.0,4.864474772539289,8.75721670802316
915.0,5.507237386269644,8.566914805624481
916.0,6.780231596360629,10.856844499586433
917.0,7.52398676592225,12.025599669148056
918.0,7.60483870967742,9.271774193548387
919.0,7.231372934697088,9.264457120377655
920.0,6.1870574350904795,11.426180173092053
921.0,6.022560975609756,8.821557828481511
922.0,6.33668371361133,9.221262785208497
923.0,7.262509834775766,8.949134539732494
924.0,6.373284065789966,10.100021542842157
925.0,6.413953205200254,6.910583155370724
926.0,6.459956539657562,6.763149563523285
927.0,6.35386459855382,9.074182308643362
928.0,6.016035367726949,9.861638754636395
929.0,6.6915814319433515,8.42467498407703
930.0,6.971361132966168,8.005492488104604
931.0,6.90582218725413,6.92996890337567
932.0,8.43578359746731,6.624124236634072
933.0,6.8693473455471885,8.08861601288824
934.0,7.523229740361919,8.419807238394965
935.0,7.683792289535798,11.766758457907159
936.0,8.570456333595594,10.446636506687646
937.0,6.66829268292683,9.002753737214793
938.0,8.224400330851944,8.608147229114971
939.0,7.85171629445823,7.660525227460712
940.0,6.857712985938793,7.280665839536807
941.0,6.413130686517784,10.114123242349049
942.0,6.0948717948717945,9.4389164598842
943.0,6.608064516129033,11.244354838709677
944.0,6.137903225806451,11.061290322580644
945.0,6.366935483870968,12.563709677419354
946.0,6.2467741935483865,11.223387096774193
947.0,7.040570719602977,9.34855252274607
948.0,5.8428660049627785,10.221050454921421
949.0,6.158126550868486,11.543589743589743
950.0,6.573014888337468,11.612923904052936
951.0,7.67803970223325,10.910090984284532
952.0,7.494354838709677,9.720967741935484
953.0,8.032258064516128,8.938709677419354
954.0,7.163709677419354,9.179032258064517
955.0,7.0048387096774185,7.922580645161291
956.0,6.09758064516129,9.525806451612903
957.0,7.059677419354839,11.593548387096774
958.0,6.742092840283242,10.900531077891424
959.0,8.858733280881196,9.891443745082611
960.0,7.1135326514555475,11.054366640440598
961.0,7.940204563335956,8.218332022029896
962.0,8.738001573564123,6.207710464201416
963.0,8.209059233449478,5.410250646285265
964.0,8.476714997564724,6.432505338878274
965.0,9.41302311640628,4.809486343711363
966.0,8.081450676257914,3.924881046045483
967.0,7.009647446704882,3.501386235060507
968.0,9.05897118879023,7.653047843842494
969.0,7.106515304784384,7.708703308231239
970.0,6.0210782660822,8.482361095500355
971.0,6.400314712824548,12.360818253343822
972.0,6.866561762391818,11.744531864673487
973.0,6.242036641564573,9.55637293469709
974.0,6.304863062455509,11.424209471357386
975.0,7.3125023416132775,12.149526057472556
976.0,7.650743696377056,9.05470008617137
977.0,7.93748829193361,9.236240680379154
978.0,8.268817204301074,9.796916563635682
979.0,8.235023041474653,8.619272413922296
980.0,6.477464313813645,10.914278221123226
981.0,7.692705406316737,10.567681990183956
982.0,8.322468247723952,8.940729084710203
983.0,7.14589187366528,12.801993181222135
984.0,8.5021917500281,11.615638230115021
985.0,8.365179273912554,8.817653890824623
986.0,6.620040463077441,7.292383200329699
987.0,7.232100708103855,6.611329661683714
988.0,6.602675059008654,7.5342250196695515
989.0,6.098033044846577,9.793863099921321
990.0,7.808954329174628,12.083473830130005
991.0,8.783706118167173,10.151099621595293
992.0,8.123466711625642,9.66119665804953
993.0,8.831712000299728,6.730096287137986
994.0,14.850148948386924,5.680126913261416
995.0,10.123231156221111,5.1684044704555925
996.0,8.519522737827314,4.972010859857821
997.0,7.518593934197835,4.391919408423535
998.0,14.409066552352371,3.9755295966848854
999.0,18.095238095238095,4.182795698924731
1000.0,12.269304259862874,4.352984151961335
1001.0,9.105934584691468,4.426641939230452
1002.0,7.0925218238357495,4.8717695103218315
1003.0,6.1377355662957545,4.520216552395938
1004.0,5.716717245513468,4.315023790790903
1005.0,6.675019669551533,4.910762054625154
1006.0,6.161664044059796,4.497473867595819
1007.0,6.497777340676633,3.9386366190850848
1008.0,9.413847364280095,3.6899516691019443
1009.0,9.467292345734517,3.4129481847813867
1010.0,7.867670750440224,3.6580869956165
1011.0,6.90247649020269,3.876625079614851
1012.0,6.795024540107152,3.468097860702109
1013.0,6.298771121351766,3.536251920122888
1014.0,7.302967292345735,3.6430931774755537
1015.0,5.790472443894946,4.325855157169083
1016.0,5.997096399535424,3.758559064853322
1017.0,6.944138473642801,3.516601101494886
1018.0,5.543036978756884,3.313139260424862
1019.0,6.023288749016523,3.6734854445318645
1020.0,5.866351953842119,3.331346204280901
1021.0,6.949698400209808,4.546869010873731
1022.0,8.710883818515605,6.160924670661098
1023.0,8.567794387621294,5.384111037140148
1024.0,6.849042748492001,6.781984708184551
1025.0,7.333123524783635,5.212745869394178
1026.0,8.006845003933911,5.284185680566483
1027.0,6.700354051927616,4.609284028324154
1028.0,6.1146871028263625,3.89857168795013
1029.0,7.270650003026084,3.703318102039581
1030.0,7.853361980269926,4.008769593899413
1031.0,7.270898141983901,3.9049355443926648
1032.0,7.61044907099195,4.287145191551171
1033.0,7.482395751376869,5.097915027537372
1034.0,6.300865460267506,4.995200629425649
1035.0,6.665381589299764,4.606176239181746
1036.0,6.673072383949646,7.666640440597954
1037.0,7.132100708103855,7.797029897718332
1038.0,6.99669551534225,9.185208497246263
1039.0,7.349645948072384,10.772383949645949
1040.0,7.534933123524784,10.63426435877262
1041.0,7.562116443745082,10.094866247049566
1042.0,6.546342400059945,9.64011745532202
1043.0,6.6618907122250945,9.611787681240868
1044.0,6.188606646435128,8.997426098684949
1045.0,6.9103143381664225,7.1649994380128135
1046.0,7.2410400509535044,6.881046045483496
1047.0,7.478661346521299,7.241444681727923
1048.0,6.378355063504552,7.065726274774268
1049.0,6.645993031358885,6.706545277434341
1050.0,6.20631673597842,7.161533850361545
1051.0,6.5079202727511145,6.397587201678468
1052.0,7.543476265407815,6.094761342774717
1053.0,6.434238132703907,4.805848413322843
1054.0,6.177150537634409,6.609139784946237
1055.0,6.819272125723739,6.795698924731182
1056.0,6.692969396195203,6.583870967741936
1057.0,6.3682982307490565,6.319531864673485
1058.0,6.887404426153442,7.054091266719119
1059.0,6.560637696947689,10.102045633359559
1060.0,7.226888276947284,10.577773406766326
1061.0,6.906294256490951,8.749016522423288
1062.0,7.176218575549811,10.114120864710952
1063.0,8.253333520662395,11.215203626690645
1064.0,8.910606571503504,10.244501892023528
1065.0,8.420403881458169,9.320819751976323
1066.0,6.64686598478888,11.057341425948822
1067.0,6.5717432842531185,11.617226780562735
1068.0,7.38154434078903,13.754246749840771
1069.0,6.1187816117792515,9.613532651455547
1070.0,5.575098347757671,9.038267580832489
1071.0,6.759697088906373,8.509299014649132
1072.0,6.027294781012326,7.605414602444499
1073.0,6.313244164699711,5.986981494770637
1074.0,4.9856543404143725,4.825825616816962
1075.0,5.184408602150537,4.27640612076096
1076.0,6.117204301075269,4.097477253928867
1077.0,5.733870967741936,3.4346774193548386
1078.0,6.514516129032258,3.6411290322580645
1079.0,5.558870967741935,3.9024193548387096
1080.0,5.802750206782465,4.945781637717122
1081.0,5.251778329197684,5.052729528535981
1082.0,5.017018196856906,9.073138957816377
1083.0,6.67504135649297,10.293424317617866
1084.0,7.495988420181968,9.67332506203474
1085.0,6.257258064516129,9.115322580645161
1086.0,5.709677419354838,8.655645161290323
1087.0,5.680645161290323,9.876612903225805
1088.0,6.241935483870968,10.575806451612902
1089.0,7.285483870967741,9.983064516129033
1090.0,7.083870967741935,7.990322580645161
1091.0,7.458870967741936,7.658064516129032
1092.0,7.896774193548387,9.545967741935485
1093.0,7.502419354838709,8.526612903225807
1094.0,8.44274193548387,10.163709677419355
1095.0,8.70483870967742,13.022580645161288
1096.0,9.182258064516128,12.379838709677419
1097.0,6.56228287841191,9.446505376344085
1098.0,6.379528535980148,13.826075268817203
1099.0,7.206699751861041,13.42069892473118
1100.0,6.698511166253102,9.60752688172043
1101.0,7.646029776674937,9.906989247311827
1102.0,7.086290322580645,9.104032258064516
1103.0,7.158870967741935,10.508870967741935
1104.0,7.023387096774194,11.987096774193548
1105.0,6.4427419354838715,13.159677419354837
1106.0,7.9080645161290315,13.279032258064515
1107.0,6.817741935483871,10.274193548387096
1108.0,5.8866211745244,9.018031430934656
1109.0,6.186455748552523,9.298531844499585
1110.0,7.153308519437552,7.777088502894954
1111.0,6.574234904880067,9.015963606286187
1112.0,5.671794871794871,8.970885028949544
1113.0,5.929032258064517,12.19032258064516
1114.0,8.39516129032258,12.7
1115.0,10.403225806451612,14.438709677419354
1116.0,8.57055417700579,14.159119106699752
1117.0,6.685277088502895,13.749317617866005
1118.0,8.127788032843107,13.427697754645038
1119.0,8.92316820996994,13.689655328935423
1120.0,9.386180879178518,12.743617987048356
1121.0,10.337686860739575,14.181195908733281
1122.0,9.814004720692369,14.1551140833989
1123.0,7.700078678206136,13.574803304484657
1124.0,7.733693941778127,11.157612116443744
1125.0,6.9923682140047205,12.398269079464988
1126.0,7.3422108575924465,11.677183320220298
1127.0,7.794492525570417,11.959559402045635
1128.0,9.40708103855232,11.523052714398112
1129.0,7.747768910868832,11.848353377542992
1130.0,8.126834888164549,10.463515791839946
1131.0,8.533617136862613,11.307717957363904
1132.0,7.70937769285527,12.742722265932336
1133.0,7.3785545689558285,10.922764227642276
1134.0,8.033944026076206,9.345359859128544
1135.0,8.815555805327637,12.656157506275521
1136.0,8.258008317410361,12.178693192461878
1137.0,8.158873777677869,12.04257989584504
1138.0,6.605934584691468,10.9732868757259
1139.0,11.548049904462177,9.588925105840922
1140.0,10.25268817204301,12.712374957850962
1141.0,8.38095238095238,9.325465512719644
1142.0,7.170727960735828,9.450222921584054
1143.0,6.8891086883219055,8.93395526581994
1144.0,6.447072046757334,7.263830504664493
1145.0,7.094494398861039,8.185350867333558
1146.0,5.984520062942565,8.513257277734066
1147.0,7.21294256490952,8.506963021243116
1148.0,6.674842643587726,8.06536191974823
1149.0,8.605604885541943,12.014881420703608
1150.0,7.488089618223372,10.13725975047769
1151.0,7.0131242740998845,14.293256153759694
1152.0,7.8570360795773855,12.85840358173167
1153.0,7.9457682364842075,11.907702971038926
1154.0,7.216552395938706,11.68109100445843
1155.0,7.545727024090517,8.375557303960136
1156.0,7.758544078528343,8.462837660634671
1157.0,6.590715971675845,11.119590873328088
1158.0,6.49698025551684,9.62436776441497
1159.0,6.490425611629388,7.64656625828931
1160.0,8.009871304934247,7.819761342774718
1161.0,8.35862369337979,10.187280356674535
1162.0,8.999719006406654,12.929320744820352
1163.0,8.059046120415122,13.469858753887078
1164.0,8.441010078303547,11.169547787643776
1165.0,7.099921321793863,9.095987411487018
1166.0,6.351848937844217,9.405428796223447
1167.0,5.977340676632572,10.102557041699448
1168.0,5.403225806451613,10.273387096774194
1169.0,5.695023603461841,9.036073957513768
1170.0,7.6436907571840695,9.368997040200817
1171.0,9.973812333745457,12.243192461878536
1172.0,10.861522610617811,9.633417631411337
1173.0,10.422696789179874,11.433644299576637
1174.0,25.01016822149788,8.867962983777304
1175.0,33.3750590086546,6.1671125098347765
1176.0,33.83937844217152,5.385287175452399
1177.0,22.007808811959087,5.145436664044059
1178.0,14.571636506687646,4.387372147915027
1179.0,10.36726986624705,3.859008654602675
1180.0,8.113106982186448,4.239395589985676
1181.0,8.030589683068046,4.272490871310698
1182.0,6.792399483548185,4.197929149266679
1183.0,6.066852770885029,4.758209263854425
1184.0,5.524152191894127,4.672249793217535
1185.0,5.114516129032259,4.52016129032258
1186.0,5.5,4.17741935483871
1187.0,8.038709677419355,4.434677419354838
1188.0,5.829032258064516,5.241935483870968
1189.0,6.79005376344086,4.373883374689827
1190.0,6.221236559139785,4.722828784119106
1191.0,5.736827956989247,4.518672456575683
1192.0,5.356445056386048,4.248449131513648
1193.0,7.327052189876737,3.663553834049507
1194.0,7.115007867820613,3.4489771833202205
1195.0,5.998268142819677,4.051639129294519
1196.0,4.814918886516054,4.335693679517441
1197.0,5.089430894308943,4.229290772170394
1198.0,4.965643849986886,4.329436888838934
1199.0,13.099209471357385,4.422689296017384
1200.0,29.482297403619196,4.464950732456633
1201.0,25.766232063242292,3.6942227717208045
1202.0,25.7644524371511,3.7935783597467307
1203.0,33.06948034918137,3.8904949233824135
1204.0,19.031902139297888,4.4159304634521
1205.0,14.17212730883069,3.9731107864074033
1206.0,10.742820613690007,3.852006294256491
1207.0,8.269394177812746,4.121164437450826
1208.0,8.81746656176239,4.150904799370574
1209.0,8.926671911880408,4.744374508261211
1210.0,7.495357985837923,5.308300550747443
1211.0,7.132258064516129,5.884677419354839
1212.0,7.922787427626137,5.359780810587262
1213.0,7.395264681555004,4.986745244003308
1214.0,6.495616211745244,4.665550041356493
1215.0,5.917280961891505,4.328919788577538
1216.0,6.0876727390102685,3.9197018297726407
1217.0,6.618076317859952,3.1913060582218726
1218.0,5.648151062155783,3.082749803304485
1219.0,6.474075531077892,2.735326514555468
1220.0,6.737588512981904,2.8636506687647523
1221.0,7.2933910306845,2.689889850511408
1222.0,7.045238095238094,5.224155145929339
1223.0,7.218663594470046,5.0579109062980026
1224.0,7.885787344048555,4.956787868569929
1225.0,6.75133190963246,5.576731857180322
1226.0,6.887340301974448,4.27104642014162
1227.0,7.966711625641602,6.043741336030871
1228.0,7.8686073957513765,6.481285826683151
1229.0,6.881195908733281,7.934584691469035
1230.0,6.717073170731707,8.591525233224683
1231.0,7.877123374920385,8.14491776254168
1232.0,6.542171518489378,7.198111723052714
1233.0,8.539535798583792,8.572383949645948
1234.0,7.399193548387096,7.362903225806451
1235.0,7.013709677419355,7.1338709677419345
1236.0,9.104032258064517,7.4322580645161285
1237.0,7.708478081058727,5.983416046319272
1238.0,6.627626137303556,9.026385442514474
1239.0,6.361393713813069,7.0704507857733665
1240.0,6.815777502067824,8.003370554177005
1241.0,7.228453267162944,7.670636889991728
1242.0,5.758064516129032,6.961290322580645
1243.0,6.993548387096774,8.087096774193547
1244.0,6.646223446105429,6.918784421715184
1245.0,6.752909076237164,6.532127942867518
1246.0,6.625176017268857,7.326901894329117
1247.0,7.203717040892493,6.840870302003268
1248.0,8.342161431539875,7.034400532590935
1249.0,6.7485412830023375,7.6398071375254695
1250.0,7.342113446480086,10.517204301075267
1251.0,7.656894646135401,8.161827956989246
1252.0,7.735378966692892,8.857142857142858
1253.0,6.132441646997115,8.805046644936496
1254.0,8.30354801243865,8.928252969165635
1255.0,9.898355250833614,7.86459855381964
1256.0,8.774118616762204,6.758027050316587
1257.0,8.843317972350231,7.682889363455846
1258.0,8.55069124423963,7.66638567307332
1259.0,7.771121351766512,6.600089917949871
1260.0,8.32258064516129,6.714023453598591
1261.0,7.638080251770258,8.364092765351616
1262.0,8.665093102543928,10.973661533850361
1263.0,7.033569367951744,10.4990258888764
1264.0,7.367726949158893,11.427578584541607
1265.0,7.441909257802255,12.43913678768124
1266.0,5.761080514030947,12.694391367876811
1267.0,6.274586939417781,10.435877261998428
1268.0,7.505114083398898,13.642800944138472
1269.0,7.442958300550748,13.410700236034618
1270.0,6.620771046420142,13.994492525570417
1271.0,7.482746993368551,12.688546701135213
1272.0,8.496796673035854,15.180547750177963
1273.0,9.736203214566707,14.724026825521712
1274.0,7.9685661833576855,14.89191113109288
1275.0,7.804896781686711,14.210707729197107
1276.0,8.243078191150573,11.332696414521749
1277.0,7.484058296804166,11.235472631224008
1278.0,6.411187291596418,11.026076205462516
1279.0,6.668727286351205,10.702746244052303
1280.0,8.483908433554381,9.446011764265108
1281.0,10.074519500955379,13.371623393653293
1282.0,8.603274512007793,13.464463676894834
1283.0,7.599040875201378,13.819564647259376
1284.0,8.099827657262747,12.52806189352216
1285.0,7.133003634183807,12.096193473455472
1286.0,6.577348169795062,11.173991232999887
1287.0,6.88741523359934,10.392267056311116
1288.0,8.10893184968716,11.250814881420704
1289.0,7.164437450826122,10.265932336742722
1290.0,6.816679779701023,8.307631785995278
1291.0,7.29897718332022,7.182533438237608
1292.0,8.326064965718782,12.196208459780449
1293.0,8.596156007643028,12.18347008354876
1294.0,7.035292795324267,9.639991008205012
1295.0,7.026301000337193,11.172867258626503
1296.0,7.181993930538384,8.209092952680678
1297.0,5.673485444531865,9.972672436401783
1298.0,6.478494623655914,8.71015698175415
1299.0,7.065565171780749,8.318165299164512
1300.0,6.971338653478701,7.5210211307182195
1301.0,7.6472153534899405,8.0058783859728
1302.0,7.052040013487693,10.772451388108351
1303.0,9.097748304671986,8.222022404555844
1304.0,10.15430294855944,5.871829455621745
1305.0,8.173541643250534,8.968940841482148
1306.0,6.9078565808699555,8.091079390056573
1307.0,6.731505001685962,7.402188003446854
1308.0,6.7504889288524215,8.417459068599902
1309.0,6.318832190626054,9.607785395826308
1310.0,6.294433516915815,7.62053501180173
1311.0,7.284618410700236,12.429760031471282
1312.0,7.476868607395751,10.861644374508261
1313.0,7.562588512981904,11.74506294256491
1314.0,7.095200629425649,11.530448465774981
1315.0,6.5948859166011005,11.593784421715185
1316.0,7.526553894571203,11.949685287175452
1317.0,6.8530487804878035,11.245495672698663
1318.0,6.8912667191188035,8.152439024390244
1319.0,7.48095987411487,6.539240755310779
1320.0,8.080802517702596,7.89744295830055
1321.0,6.8460464201416205,7.6575924468922105
1322.0,7.477458693941778,7.736860739575137
1323.0,6.671774193548387,9.086290322580645
1324.0,5.5032258064516135,8.783064516129032
1325.0,7.554838709677419,8.589516129032258
1326.0,6.524193548387097,8.26290322580645
1327.0,6.0612903225806445,6.958870967741936
1328.0,5.516129032258064,6.991129032258064
1329.0,5.4346774193548395,6.650806451612903
1330.0,5.646774193548387,6.40241935483871
1331.0,6.463709677419354,5.628225806451613
1332.0,8.933870967741935,10.231451612903225
1333.0,9.779838709677417,11.542741935483871
1334.0,9.172246262785208,10.653599527930762
1335.0,7.334756097560975,8.763768686073957
1336.0,6.849036191974823,8.896852871754524
1337.0,6.770351429320744,9.768280506537785
1338.0,7.333071072646209,9.475928215503352
1339.0,8.236634071409838,10.038402457757297
1340.0,7.000299726499569,10.132891236746467
1341.0,7.354070660522273,8.670937769285526
1342.0,6.528417818740399,9.802442770971489
1343.0,7.113540144618035,9.610505413809896
1344.0,6.116218950207935,6.799970027350042
1345.0,6.401933235922221,5.729253306357948
1346.0,6.522471994305196,9.47007980218051
1347.0,11.267941657084064,7.708483124533478
1348.0,10.104466501240694,7.277530311283261
1349.0,9.008566846214368,7.460952409772236
1350.0,9.661403800762573,7.730004135649296
1351.0,7.910137384252254,7.861373035566583
1352.0,7.482612116443745,8.07741935483871
1353.0,7.1332022029897715,9.668922108575924
1354.0,6.898387096774194,8.996774193548386
1355.0,6.500558312655087,9.12200165425972
1356.0,6.776488833746899,8.919871794871796
1357.0,6.895905707196031,9.862758478081059
1358.0,6.214888337468983,10.49387923904053
1359.0,8.36712158808933,14.40339123242349
1360.0,6.728225806451613,11.11774193548387
1361.0,7.744905586152636,9.044040125885129
1362.0,8.102183320220298,11.562254130605822
1363.0,7.951730920535011,13.545043273013375
1364.0,7.144079464988198,14.853560188827695
1365.0,7.656176239181746,12.00786782061369
1366.0,7.411149825783972,11.211681840320708
1367.0,7.585590648533213,10.881608032670188
1368.0,7.356524671237496,11.537184818852797
1369.0,9.024839833651793,12.48102356599603
1370.0,8.662301899516692,12.46317110636544
1371.0,7.698662470495673,11.162077104642014
1372.0,8.129819040125884,8.682140047206923
1373.0,8.865774980330448,9.368607395751376
1374.0,7.991581431943351,11.563139260424862
1375.0,9.126553894571202,12.885739575137686
1376.0,8.209244689221086,10.761014948859167
1377.0,7.786290322580645,8.052419354838708
1378.0,7.9347187758478075,6.337675765095119
1379.0,8.095988420181968,5.579321753515301
1380.0,8.541542597187759,4.729177005789909
1381.0,7.740529363110008,5.050475599669149
1382.0,7.144458229942101,4.6708023159636065
1383.0,11.273387096774194,4.154838709677419
1384.0,10.445967741935483,4.15
1385.0,7.619354838709677,4.510483870967741
1386.0,7.916935483870969,4.218548387096774
1387.0,7.981451612903226,4.532041699449252
1388.0,6.389555468135327,4.3845594020456335
1389.0,24.37367558353003,3.980547750177963
1390.0,30.15962965044397,3.9642754111872915
1391.0,30.575866963256495,4.1385799411525355
1392.0,18.796382022334853,4.412289483520706
1393.0,12.336822010380644,4.479551508086081
1394.0,7.514647564330107,4.091465462184361
1395.0,5.425449742226498,4.007407078250399
1396.0,4.893117530253644,5.320621183170356
1397.0,6.242564909520063,4.662077104642014
1398.0,7.38249409913454,5.165814319433517
1399.0,11.118509047993705,4.675865460267506
1400.0,11.94740361919748,4.1251376868607394
1401.0,10.497698662470494,4.3359756097560975
1402.0,9.034506013262899,4.609980892435653
1403.0,7.402382825671575,4.719231201528604
1404.0,6.705833426997865,4.7181521861301565
1405.0,7.2669052950720925,3.9290391748298905
1406.0,7.412052175466809,3.5159751342284777
1407.0,7.687132078516815,4.737711069418387
1408.0,7.852377998345741,5.129280397022333
1409.0,9.968173656922673,4.226048538401017
1410.0,8.898478888014687,3.917762541680716
1411.0,22.40376344086021,3.7963517665130566
1412.0,20.081336405529953,3.621351766513057
1413.0,18.28663594470046,3.4509984639016897
1414.0,13.694814731557454,5.136649057734817
1415.0,12.57052564534862,5.398201641002585
1416.0,26.164098385223483,5.132617736315612
1417.0,71.61469128170543,4.868920235285302
1418.0,44.403866646104035,4.588979997612643
1419.0,25.69118063487997,4.189267264551329
1420.0,17.12267882033494,3.9233291303260014
1421.0,11.472433037232772,4.967958821653952
1422.0,8.359104383439735,5.543887244928358
1423.0,6.961741641521343,5.7115809708256595
1424.0,4.941393094186171,8.006097705074888
1425.0,5.402292907721703,6.794694840957626
1426.0,5.2212093964257615,6.246678655726649
1427.0,5.870102281667977,7.1292682926829265
1428.0,6.439126268433899,5.535129819040126
1429.0,6.073595392281466,4.43691974822974
1430.0,5.379539631624604,6.374508261211644
1431.0,5.536583348463758,5.972619984264359
1432.0,5.7588502894954505,4.832258064516129
1433.0,5.747580645161291,5.280645161290322
1434.0,4.834677419354839,4.634677419354839
1435.0,6.431451612903226,6.365322580645161
1436.0,9.514362519201228,7.799347158218126
1437.0,7.278817766288262,10.686131092877748
1438.0,5.807400434603425,9.970427297590948
1439.0,7.202106515304784,7.206815031283953
1440.0,11.288898879772209,8.6340526769323
1441.0,8.91918624255367,8.940991345397325
1442.0,6.995279307631785,7.906260537259751
1443.0,6.485987786145142,7.544453186467349
1444.0,7.106665168034168,6.978217376643812
1445.0,6.75425424300326,7.495560301225131
1446.0,6.642272676182983,6.846521299314375
1447.0,6.550118017309206,10.195121951219512
1448.0,7.192368214004721,10.322659323367427
1449.0,8.529248623131393,9.523426435877262
1450.0,9.15460267505901,8.231785995279308
1451.0,11.168646734854445,11.291817466561763
1452.0,9.773544453186467,12.165578284815105
1453.0,8.273564122738001,12.877301337529506
1454.0,6.675491738788355,12.583005507474429
1455.0,7.0912470495672695,10.308025177025964
1456.0,6.949252557041699,10.307238394964596
1457.0,6.166286388670338,8.530251770259639
1458.0,9.683064516129033,8.357258064516127
1459.0,12.383064516129032,8.330645161290324
1460.0,10.224193548387097,8.462096774193547
1461.0,8.916480562448305,7.212613730355665
1462.0,7.066708023159635,6.681306865177833
1463.0,6.575289495450786,8.483395368072788
1464.0,5.965467328370554,8.789681555004135
1465.0,8.259346567411082,10.179114971050454
1466.0,8.381451612903225,10.126612903225805
1467.0,6.816129032258065,9.028225806451612
1468.0,5.951612903225806,12.28467741935484
1469.0,5.800806451612903,10.860483870967743
1470.0,5.801757650951199,8.87129859387924
1471.0,7.770636889991728,7.049358974358974
1472.0,6.280578083076116,6.330786882930864
1473.0,7.350310678044745,7.7010445036212145
1474.0,8.155454878192879,6.967323327079424
1475.0,7.519152523322468,6.655946761080514
1476.0,7.581094751039675,8.755048518227117
1477.0,7.0364167696976505,7.3700498295305525
1478.0,6.254243003259525,8.394702334120115
1479.0,6.458693941778128,10.326514555468133
1480.0,7.93170731707317,9.821872541306057
1481.0,9.377025963808025,9.577340676632573
1482.0,9.720141620771045,8.163257277734067
1483.0,11.080055074744294,6.845908733280881
1484.0,14.966935483870968,7.228225806451613
1485.0,12.158870967741935,9.026612903225807
1486.0,9.86774193548387,10.22016129032258
1487.0,8.399193548387096,8.95
1488.0,7.563709677419355,7.429032258064517
1489.0,6.232258064516129,6.570161290322581
1490.0,8.100806451612904,8.891935483870967
1491.0,7.642741935483871,11.204838709677418
1492.0,7.720967741935484,9.84032258064516
1493.0,6.40924317617866,7.445347394540942
1494.0,8.594737638443382,9.432833020637899
1495.0,6.704626883737819,8.058351994189916
1496.0,6.358765054772135,7.128369545482055
1497.0,8.806929734309751,6.751261877383042
1498.0,11.496989621969952,7.6685530703233304
1499.0,9.50498576299127,7.41688865160541
1500.0,8.725752126184856,6.72031490015361
1501.0,7.77988835187891,6.082949308755761
1502.0,8.657450076804915,5.9588625379341345
1503.0,6.981874039938555,6.3911056161252855
1504.0,6.7359409538795845,6.806961147952493
1505.0,6.363249784571579,6.188689071222509
1506.0,6.684697088906373,6.747954366640441
1507.0,7.6189024390243905,6.98058615263572
1508.0,6.693418193398523,9.658975872016784
1509.0,5.39630587089281,8.790375032782585
1510.0,6.536075830804391,8.743810647783896
1511.0,7.180941141208647,7.867873065827432
1512.0,6.5229646697388635,7.431182795698925
1513.0,6.471774193548386,6.964516129032258
1514.0,6.202380015735641,8.818253343823761
1515.0,8.126593233674273,8.37364280094414
1516.0,9.408457907159717,8.861014948859166
1517.0,8.221164437450826,11.156313926042486
1518.0,6.918853517319292,10.142125118521657
1519.0,6.409780810587263,9.98420181968569
1520.0,5.779487179487179,9.392907361455748
1521.0,6.318775847808105,8.81782464846981
1522.0,5.614226633581472,9.408105872622002
1523.0,6.135483870967741,9.035483870967742
1524.0,7.5532258064516125,10.30725806451613
1525.0,8.349193548387097,7.424999999999999
1526.0,6.986827956989248,6.6361042183622825
1527.0,7.116397849462365,6.419665012406948
1528.0,6.806182795698924,5.302171215880893
1529.0,6.447043010752688,7.149069478908189
1530.0,6.897311827956989,8.570099255583127
1531.0,8.157258064516128,9.079838709677418
1532.0,8.217820613690009,8.315165224232887
1533.0,9.253481510621558,12.76130999213218
1534.0,7.0690794649881985,13.602025963808025
1535.0,7.32486231313926,12.732867820613691
1536.0,9.58985051140834,13.091030684500394
1537.0,9.042761605035405,12.630487804878047
1538.0,9.493450039339102,14.390381589299764
1539.0,11.170515342250196,14.358497246262784
1540.0,9.932002360346184,10.627006294256491
1541.0,9.1877561724926,9.461102993518415
1542.0,8.598598778614512,10.428033794162825
1543.0,6.883091678843055,12.027942939567644
1544.0,7.994080401633509,9.678468397587201
1545.0,6.94157206549024,10.591791240493048
1546.0,7.56026375931962,9.19028886141396
1547.0,7.414671612153909,9.42126559514443
1548.0,6.47318946461354,9.766966393166236
1549.0,6.37357910906298,8.588655351991308
1550.0,6.2123599715259825,9.851369375444905
1551.0,6.889103068450039,6.9020062942564895
1552.0,6.952419354838709,6.844394177812745
1553.0,6.032258064516128,7.270180959874114
1554.0,7.2313139260424855,9.948229740361919
1555.0,7.425930088793975,9.243269266794051
1556.0,8.39943239294144,12.675529204600801
1557.0,7.588723727099022,12.322066426885467
1558.0,8.356861863549511,11.602450264133978
1559.0,8.637046195346745,14.09052489603237
1560.0,8.224727436214454,12.432602749990632
1561.0,8.380656401034056,10.758787606309241
1562.0,7.0056123787044315,11.861728672586263
1563.0,5.736873852609493,7.934713948521973
1564.0,7.080514030946761,7.85624367764415
1565.0,7.6818777865198,7.24244127233899
1566.0,6.459742984526619,7.764021580307968
1567.0,5.85429545539695,6.610505413809898
1568.0,6.9302161777378135,6.592034768273949
1569.0,7.00641414709078,7.114585440785283
1570.0,8.802105578659473,7.4999363081188415
1571.0,8.108448540706606,6.751305683563748
1572.0,7.569669551534226,8.054917387883556
1573.0,7.812254130605822,8.271007081038553
1574.0,8.281530291109362,9.728245476003146
1575.0,8.241974822974036,8.234284028324154
1576.0,6.9443745082612125,9.038512981904013
1577.0,7.720967741935484,7.712096774193548
1578.0,6.67258064516129,9.758870967741935
1579.0,6.4312155782848155,9.094197482297403
1580.0,6.385365853658536,8.115243902439024
1581.0,6.5122344610542875,10.47197088906373
1582.0,6.023052714398112,10.731549960660896
1583.0,5.978599527930763,8.198308418568056
1584.0,7.378520849724627,5.832828481510622
1585.0,7.299645948072383,7.421479150275374
1586.0,6.013260087670001,6.847939380315462
1587.0,6.881285826683151,6.4338634745794465
1588.0,6.5063392154658874,6.6580017608931845
1589.0,5.907496909070473,6.3421303060956875
1590.0,7.031246487580083,5.8008841931737285
1591.0,6.070692368214004,5.221793863099921
1592.0,6.096321793863099,6.313099921321793
1593.0,6.350528556154048,7.611822913514495
1594.0,6.842770178942484,6.871214367850874
1595.0,7.109691541084145,5.632784603280276
1596.0,6.969361899574331,6.869618108091751
1597.0,7.0883788254755995,5.857940446650124
1598.0,8.779838709677419,4.812096774193549
1599.0,7.227419354838709,4.733064516129033
1600.0,8.22983870967742,7.624193548387096
1601.0,7.695967741935484,6.895967741935483
1602.0,7.093713813068652,7.444644334160463
1603.0,6.347663358147229,8.923531844499585
1604.0,5.44278329197684,7.018217535153018
1605.0,5.683085194375517,5.807092638544251
1606.0,6.739123242349049,5.035401157981803
1607.0,7.083870967741936,3.8483870967741938
1608.0,5.6298387096774185,4.314516129032258
1609.0,7.708870967741936,5.133064516129032
1610.0,8.054032258064515,5.1217741935483865
1611.0,9.512861869313483,7.149524400330852
1612.0,9.901592224979321,8.664681555004135
1613.0,7.1923283705541765,8.407340777502068
1614.0,6.8146437289434925,7.507004377736084
1615.0,6.447241219310456,11.116405414674494
1616.0,6.454720692368213,9.812627852084972
1617.0,5.517604248623131,10.34771833202203
1618.0,6.803068450039339,11.577458693941779
1619.0,6.191463414634146,11.422875688434303
1620.0,6.228489003784047,11.070174403356937
1621.0,7.048705556179986,12.950694990820875
1622.0,6.544415720654902,10.232700161102994
1623.0,6.630587089281031,8.940504289835523
1624.0,8.05880259263422,11.806208085122325
1625.0,8.850511408339889,8.170544378254842
1626.0,8.440298227867071,10.86613465212993
1627.0,6.8928477764040315,12.1583305233974
1628.0,6.385073620321457,13.584616537409612
1629.0,7.069798808587164,10.736840133378292
1630.0,8.542373833876589,10.289741860552247
1631.0,8.509984639016896,10.16241429695403
1632.0,9.871042673560375,6.944307069798809
1633.0,7.848937844217151,8.394964594807238
1634.0,8.250196695515342,8.608811959087333
1635.0,8.939821259254776,8.925731808186569
1636.0,7.765662006495996,10.157279751457564
1637.0,6.91752809215437,9.994375516956161
1638.0,7.467969396195203,9.042349048800661
1639.0,6.8851943755169565,9.72117452440033
1640.0,7.054838709677419,8.388709677419355
1641.0,7.458870967741936,10.062903225806451
1642.0,6.841935483870968,9.043548387096774
1643.0,6.09274193548387,6.829032258064515
1644.0,6.169354838709677,8.279838709677419
1645.0,5.908870967741935,6.34758064516129
1646.0,5.963709677419354,7.5008064516129025
1647.0,6.481451612903225,9.645967741935484
1648.0,6.753225806451612,9.791935483870969
1649.0,6.7376475216365055,10.630133752950432
1650.0,8.102694728560188,9.655389457120378
1651.0,6.748013375295043,8.274291896144767
1652.0,7.579366640440598,9.160483870967742
1653.0,6.8620771046420135,8.551612903225806
1654.0,5.606726986624705,5.833634933123525
1655.0,5.673800157356412,7.625491738788355
1656.0,6.6205350118017305,7.752242328874901
1657.0,6.65306095687685,8.948280319208722
1658.0,7.57003952643213,8.247546925930088
1659.0,7.263609456371061,6.511509497583454
1660.0,7.5244876550147985,7.272041137462065
1661.0,6.971537222284665,7.4663969128170535
1662.0,8.148136075830806,7.069210595331759
1663.0,7.010544752912967,6.620027350043085
1664.0,6.604406916188977,5.197503840245775
1665.0,6.060376156756959,4.533026113671275
1666.0,6.601963208572178,4.572440148364617
1667.0,7.406803791540219,9.251601663482072
1668.0,8.117380390393766,11.68993293619572
1669.0,8.074819227454947,11.158892510584092
1670.0,7.941178674459556,9.263010003371923
1671.0,6.513783672398936,7.471709565021917
1672.0,6.233288374358398,7.870394515005058
1673.0,6.7019070098535085,8.469768835937206
1674.0,6.935925967554606,7.906402907347045
1675.0,7.238700310966243,6.53960698362744
1676.0,6.129519313626316,6.4642763478326035
1677.0,6.391667603311977,6.280918661721179
1678.0,7.674197294968341,5.5724026825521715
1679.0,11.426117417856206,4.34978082499719
1680.0,24.990221422951556,3.5254954853696
1681.0,18.97268742272676,3.8001198905998277
1682.0,17.599640328200515,3.5125697800756805
1683.0,59.828537709340225,3.7779213967254877
1684.0,48.51219512195122,7.875059008654602
1685.0,28.685287175452398,9.129504327301337
1686.0,20.507474429583006,7.645003933910306
1687.0,13.119433516915814,8.285129819040126
1688.0,10.240979241057918,8.642625431217091
1689.0,9.809199297948314,8.790667554318222
1690.0,8.548974157235367,7.957882951037947
1691.0,11.404463475155843,10.20317436300914
1692.0,8.946586576287599,10.83142589118199
1693.0,7.095377655389457,10.24077498033045
1694.0,7.098898505114084,10.794177812745868
1695.0,6.591935483870968,9.216129032258065
1696.0,5.872559966914805,8.671856906534327
1697.0,7.218941273779983,9.365363937138131
1698.0,7.8191480562448294,9.804859387923905
1699.0,7.277315963606286,8.436703887510339
1700.0,8.52051282051282,11.759884201819686
1701.0,7.630645161290322,9.966129032258063
1702.0,8.671774193548387,7.775
1703.0,9.414516129032258,7.87741935483871
1704.0,8.576357199055861,7.46066089693155
1705.0,8.198623131392605,7.040774980330449
1706.0,8.044748229740362,6.372010228166798
1707.0,7.164516129032258,6.870220298977183
1708.0,6.335483870967742,7.69236821400472
1709.0,6.920692368214004,7.798583792289535
1710.0,5.548859166011015,6.419354838709677
1711.0,6.9152635719905575,5.986624704956727
1712.0,8.339614476789928,5.695121951219512
1713.0,8.283241542092838,6.713611329661683
1714.0,7.854557716084072,7.174440822749242
1715.0,6.577160840732831,5.896819152523323
1716.0,6.088344385748005,5.3764190176463975
1717.0,5.5919223708366115,4.910381776628826
1718.0,7.246787306582744,5.942995766363193
1719.0,5.838447416732232,5.674646884717695
1720.0,5.981379491214267,5.179573639054363
1721.0,6.843730096287139,7.524933498182907
1722.0,8.105428796223446,8.44603049717133
1723.0,7.460979356337342,9.492600502041887
1724.0,6.741710688996291,8.975834550972237
1725.0,6.457401371248736,9.347083286501068
1726.0,5.849724626278521,9.703326964145216
1727.0,7.395215615750628,8.638529841519613
1728.0,7.096302124311565,8.512352478363493
1729.0,7.580802517702596,7.834854445318646
1730.0,6.0952793076317855,8.446144767899291
1731.0,5.0767505900865455,7.182946498819827
1732.0,5.868450039339102,7.7737608182533435
1733.0,4.48906372934697,7.4409126671911885
1734.0,6.143823760818253,8.38804091266719
1735.0,7.199539170506911,9.073792664193924
1736.0,7.096229065977296,10.31817091903638
1737.0,7.216092503090929,10.248778614514254
1738.0,7.220546251545464,8.467131242740997
1739.0,7.220179086583492,7.254583942152786
1740.0,6.459398299052115,7.354096886590986
1741.0,6.403971376119291,6.602697538496122
1742.0,6.451710314338166,5.486478588288186
1743.0,5.767515267318572,10.049808924356524
1744.0,7.054855353144102,9.041624301478747
1745.0,7.9409701628033655,9.54814299259618
1746.0,7.687164861102706,8.68980713752547
1747.0,7.660921140228772,7.845710020375638
1748.0,7.284827210554983,7.165577276120155
1749.0,7.37309205350118,8.149685287175451
1750.0,9.631233418110625,8.090989973103031
1751.0,10.839456205514793,7.4826409346239
1752.0,9.254136704907934,8.053590052565406
1753.0,7.24274548937422,6.379757563352242
1754.0,6.89950020338105,8.342907892612391
1755.0,10.825273860679053,9.214800148710454
1756.0,9.116207422265642,13.380863039399625
1757.0,7.946642919105546,13.060443883417918
1758.0,6.745719530928028,9.663369675171406
1759.0,5.7214042186504805,7.599190738451163
1760.0,6.5210482934322425,6.192750365291671
1761.0,7.640580470320832,8.066037241017572
1762.0,6.755695427922021,10.07479674796748
1763.0,8.21635132941191,8.046146641189914
1764.0,7.349436763952893,6.56121351766513
1765.0,6.636815156169995,9.729800307219662
1766.0,5.984964969465363,9.270551871417332
1767.0,6.258454160578472,6.9326402158030795
1768.0,6.859104192424413,5.098194147840095
1769.0,6.127708778239856,4.4576992244576825
1770.0,4.629167134989323,5.297830729459369
1771.0,5.220405754748791,9.473856356075082
1772.0,5.679361020568731,9.39452062492975
1773.0,7.326604473418006,6.867498407702971
1774.0,9.498939717507774,9.343887452699413
1775.0,10.233026113671274,7.976113671274961
1776.0,8.539843889543814,6.975116100453684
1777.0,7.758454596227454,9.533122566355875
1778.0,7.096351047692236,7.642764872402769
1779.0,8.108945071633762,6.2405686787550545
1780.0,6.621888050409815,4.967749777165546
1781.0,5.542504964220148,6.3868719793188715
1782.0,5.484942489977895,5.606339215465887
1783.0,6.637435839796186,4.994987074294706
1784.0,6.418245850661272,4.392458131954592
1785.0,6.052517702596381,3.773878835562549
1786.0,6.888571990558615,4.794099134539732
1787.0,6.20759244689221,5.9672108575924465
1788.0,6.449763965381589,5.89287962234461
1789.0,7.445967741935483,5.710483870967742
1790.0,6.366935483870968,6.12016129032258
1791.0,7.428697875688434,5.432671125098347
1792.0,6.338221973410801,6.545977828884989
1793.0,6.2993529221892715,5.231456656377978
1794.0,7.801692590126894,4.411292844318021
1795.0,7.737943069256995,5.8181464221590105
1796.0,7.7859660271540685,6.293809639088947
1797.0,6.737234461054287,5.875275373721479
1798.0,7.610444531864673,5.114280094413847
1799.0,7.255940204563336,5.3306845003933905
1800.0,8.202163650668764,5.645987411487018
1801.0,6.774409913453972,6.9083595594020455
1802.0,6.543509047993705,5.303697875688434
1803.0,5.993627065302911,5.45200629425649
1804.0,7.038512981904013,5.180369787568843
1805.0,7.6777537372147915,6.169256490952006
1806.0,7.5320220298977185,5.289063729346971
1807.0,6.635405192761605,6.209441384736428
1808.0,7.6092053501180175,8.73021243115657
1809.0,7.155346083237507,7.726501442433779
1810.0,7.0947462123504605,11.051606346708628
1811.0,7.880840848110713,11.801206399160765
1812.0,7.357257560168653,11.555048518227117
1813.0,6.380438378825476,8.644086021505377
1814.0,6.255645161290323,7.866129032258065
1815.0,6.213709677419355,8.169354838709678
1816.0,6.658064516129032,11.176612903225806
1817.0,7.464516129032258,12.491935483870968
1818.0,7.0447063688999165,9.922518610421836
1819.0,7.797353184449959,11.195533498759305
1820.0,7.850289495450786,10.825992555831267
1821.0,7.874338296112489,9.688399503722085
1822.0,6.9916046319272125,6.764764267990074
1823.0,6.873387096774193,7.316129032258065
1824.0,6.164516129032258,7.111290322580645
1825.0,8.14274193548387,8.66532258064516
1826.0,8.099855252274608,9.11501240694789
1827.0,6.840653432588916,10.864764267990076
1828.0,6.459842845326715,11.38318858560794
1829.0,8.41782464846981,8.919416873449132
1830.0,7.596776210938288,7.8447497427827875
1831.0,7.029661683713611,5.74492525570417
1832.0,6.753540519276161,5.924881982690795
1833.0,5.920472256565883,9.21184575325016
1834.0,6.219392304522123,9.4865385335881
1835.0,7.077438087744932,9.063489565771235
1836.0,6.845170656775691,10.449526057472557
1837.0,7.1526544528118094,11.255254580195572
1838.0,7.6479712262560415,7.805627365029411
1839.0,8.915139934809485,9.731669851260724
1840.0,8.169607732943689,10.69431643625192
1841.0,8.686298752388446,10.409707392004794
1842.0,7.042192268785502,9.062853223356765
1843.0,6.268696449105576,9.192559577846755
1844.0,5.527373963565938,8.45017248683653
1845.0,6.063057556133874,7.741844701325425
1846.0,5.774723113236094,7.964942806996308
1847.0,6.283143194335169,7.262372147915027
1848.0,6.729071597167584,7.354169944925255
1849.0,6.93728287841191,7.229880066170389
1850.0,6.81985111662531,9.357278742762613
1851.0,7.655086848635236,10.622994210090983
1852.0,8.286414392059553,10.805045492142266
1853.0,6.737965260545906,10.236393713813069
1854.0,7.035483870967742,9.661290322580644
1855.0,7.887096774193548,7.137903225806451
1856.0,7.653225806451613,6.011290322580645
1857.0,7.374193548387097,5.785483870967742
1858.0,6.247580645161291,5.860483870967741
1859.0,5.586290322580645,6.062096774193548
1860.0,5.3849331235247835,6.264004720692368
1861.0,7.2303697875688435,6.2239378442171525
1862.0,6.5840479937057435,7.098308418568056
1863.0,6.557907159716759,7.63095987411487
1864.0,7.679819040125885,6.180409126671911
1865.0,5.87067269866247,6.844807238394964
1866.0,6.815578284815105,6.794177812745869
1867.0,7.289378442171518,5.409677419354839
1868.0,6.410228166797796,8.616719118804092
1869.0,7.245712037765538,9.315125885129818
1870.0,7.840597954366641,7.8015145554681355
1871.0,8.271911880409126,7.779386309992132
1872.0,8.708418568056647,8.326042486231314
1873.0,8.380645161290323,9.187096774193549
1874.0,6.56091811414392,10.019458229942101
1875.0,6.759491315136476,12.843196856906534
1876.0,5.833374689826303,11.419582299421009
1877.0,5.957009925558312,9.762613730355666
1878.0,6.11439205955335,8.370016542597188
1879.0,7.508064516129032,9.804032258064515
1880.0,6.9185483870967746,8.395967741935484
1881.0,6.345967741935484,6.476612903225806
1882.0,6.54071546732837,7.580376344086021
1883.0,6.239309346567411,7.1083333333333325
1884.0,5.0684449958643505,5.940860215053763
1885.0,6.083416046319272,6.956720430107527
1886.0,5.594127377998346,6.498924731182796
1887.0,5.591935483870968,9.148387096774194
1888.0,5.2935483870967746,12.428225806451614
1889.0,5.552340676632573,11.345515342250199
1890.0,6.649154209284028,12.30582218725413
1891.0,8.158044846577498,10.172265932336742
1892.0,9.002121501629762,10.894351092128431
1893.0,8.221743284253119,8.496575624742423
1894.0,7.618346071709565,8.906824397737065
1895.0,8.489491776254168,9.059326177363157
1896.0,6.923532276797422,8.353827132741374
1897.0,6.527743434116369,8.080776291633883
1898.0,6.103368176538908,7.3865722528193025
1899.0,6.588943838747143,6.983477576711251
1900.0,9.202690045333632,8.90802143044472
1901.0,8.346933423251283,9.319733243415381
1902.0,8.403207073545389,8.686223820763553
1903.0,6.238188902626353,7.435322767974223
1904.0,7.36632947435465,6.423037728073133
1905.0,6.405337725479345,6.915140511206601
1906.0,5.586079000988521,6.153269180334483
1907.0,5.780293631100083,7.682299421009098
1908.0,6.694582299421009,8.398599787309465
1909.0,5.572291149710504,7.775912796880538
1910.0,6.736073957513769,6.926498632497845
1911.0,7.19764527368776,9.039266981379491
1912.0,6.8173710239406535,6.255520587463939
1913.0,6.925798021805102,7.841380989846764
1914.0,7.2286051478026305,7.93520662395564
1915.0,6.899511071147577,9.017563972874752
1916.0,7.305605822187253,8.07053501180173
1917.0,5.729819040125884,8.905428796223447
1918.0,5.70605822187254,8.855704169944925
1919.0,6.257828481510621,7.194177812745869
1920.0,5.762704657000487,10.072136675283803
1921.0,5.957040762803942,10.274069911206023
1922.0,7.1813429620471325,10.31203495560301
1923.0,6.2080101907009855,9.155614251995054
1924.0,5.690629800307219,9.093778801843317
1925.0,6.424193548387096,8.713709677419356
1926.0,6.699193548387097,8.279838709677419
1927.0,6.312903225806451,7.54758064516129
1928.0,7.175,9.27016129032258
1929.0,6.535483870967742,9.704032258064515
1930.0,6.740952006294256,8.542230527143982
1931.0,6.032572777340676,8.78845397324941
1932.0,6.532415420928402,7.805114083398898
1933.0,7.125078678206137,7.339653815892998
1934.0,6.6778520849724625,6.565932336742723
1935.0,5.967208984301824,7.72251507998951
1936.0,8.340843355438164,6.579383500056199
1937.0,7.783718294556218,6.502978532089468
1938.0,6.901802105578659,5.014274474541981
1939.0,7.01510246899704,7.572833539395302
1940.0,7.399883855981416,7.747798883518788
1941.0,6.36852871754524,6.648937844217151
1942.0,7.196852871754524,6.636896332096961
1943.0,7.435955940204563,8.369510321831328
1944.0,6.803461841070024,8.900884193173727
1945.0,6.258064516129032,8.50284178187404
1946.0,5.595161290322581,6.871582181259599
1947.0,6.100806451612903,6.980645161290322
1948.0,6.785483870967742,5.0209677419354835
1949.0,6.892411083540116,5.348966087675764
1950.0,7.624028122415219,4.569644334160463
1951.0,7.951530190239868,5.8775641025641026
1952.0,8.62979735318445,8.70854011579818
1953.0,8.645947063688999,8.443382961124897
1954.0,7.733064516129032,8.244354838709677
1955.0,6.92016129032258,7.813709677419355
1956.0,6.089516129032258,8.966129032258063
1957.0,5.622187758478081,9.341377171215882
1958.0,4.530045492142267,7.71544665012407
1959.0,5.445264681555004,9.1613523573201
1960.0,6.313358147229115,8.992369727047148
1961.0,6.607760898948939,8.790824910730496
1962.0,6.8832022029897715,7.618489378442172
1963.0,5.878160241279831,7.015734704582069
1964.0,5.829805927091528,7.647786707129744
1965.0,6.299186991869918,6.313360308718295
1966.0,5.921820089168634,5.258175040275749
1967.0,5.489981641751901,4.940436851373122
1968.0,6.305114083398898,9.189889850511408
1969.0,6.155782848151062,7.593908058896257
1970.0,6.1759019894346405,8.986624704956725
1971.0,7.189839271664606,7.897718332022029
1972.0,7.69295268067888,7.421715184893785
1973.0,7.848584512785928,6.700286469365934
1974.0,8.150098708005867,7.974797612563151
1975.0,7.678044745708003,7.409749036696322
1976.0,7.572696645080594,8.065220702455164
1977.0,8.684652706328553,8.368373378522866
1978.0,7.581449595513325,8.638942685952914
1979.0,7.681450604208274,6.971890697815167
1980.0,7.8798382053299445,8.431913090843068
1981.0,9.161083540115797,9.779528535980148
1982.0,8.436290322580646,7.189516129032258
1983.0,6.796774193548387,8.187903225806451
1984.0,6.679032258064516,8.90967741935484
1985.0,6.009677419354839,7.135483870967742
1986.0,6.850806451612903,9.931451612903226
1987.0,8.527460711331678,10.421360628618693
1988.0,6.924155217978978,9.19172870140612
1989.0,7.3210075853860275,7.71565191954649
1990.0,7.314939276563981,5.756213056547439
1991.0,6.938518025378764,6.209154915370494
1992.0,7.271282454760032,8.621715184893784
1993.0,5.853579858379229,8.3360346184107
1994.0,6.226947285601888,11.417427222659324
1995.0,6.546498819826907,10.53095987411487
1996.0,6.460192574275974,9.837023715859278
1997.0,6.357791015698176,8.611666853995729
1998.0,6.933812895732644,10.243677644149713
1999.0,7.262343111910381,10.645048892885242
2000.0,5.96240680379154,7.901596043610207
2001.0,7.108025177025963,6.58654602675059
2002.0,7.114458057022966,7.522535686186355
2003.0,6.989097448578172,7.786707129744109
2004.0,7.023266269529055,5.740324453935784
2005.0,7.969877486793301,6.385410812633472
2006.0,6.562436776441497,5.699314375632236
2007.0,6.986133902813682,9.991131842193997
2008.0,7.278858042036641,9.650942265183021
2009.0,7.705990783410138,7.871812596006144
2010.0,6.808064516129032,9.023387096774194
2011.0,6.567191188040913,10.347246262785207
2012.0,6.273918174665617,10.35265538945712
2013.0,6.499055861526358,12.962214791502753
2014.0,5.845102786015453,12.114285642236075
2015.0,6.761261070427082,10.30754604692449
2016.0,7.885587262200166,8.039846980976012
2017.0,6.606906534325889,7.92839123242349
2018.0,6.742969396195203,8.154921422663358
2019.0,6.899193548387096,6.995161290322581
2020.0,7.52016129032258,9.54032258064516
2021.0,8.029032258064516,11.280645161290323
2022.0,8.121774193548386,10.235483870967743
2023.0,7.999627791563276,11.304921422663359
2024.0,6.828846153846154,9.129880066170388
2025.0,6.547890818858561,10.629859387923904
2026.0,7.019913151364764,11.637510339123242
2027.0,7.4434243176178665,12.755045492142266
2028.0,6.433870967741935,8.773387096774194
2029.0,6.750806451612903,6.468548387096774
2030.0,8.008870967741935,8.845161290322581
2031.0,6.760483870967741,8.528225806451612
2032.0,6.747022332506203,7.443899917287014
2033.0,5.878349875930521,7.744127377998346
2034.0,6.838771712158809,10.422870140612076
2035.0,5.516563275434243,10.152564102564103
2036.0,5.584491315136477,10.154507857733664
2037.0,6.515322580645162,9.370967741935484
2038.0,6.454032258064516,9.11209677419355
2039.0,7.985955940204563,9.460129819040127
2040.0,10.743093177475552,10.247403619197483
2041.0,11.32839108832421,13.364437955173596
2042.0,9.900062971384765,13.065568702213076
2043.0,8.397572791750605,10.758659646149813
2044.0,7.6590539017761685,9.993806613004097
2045.0,8.068006213560894,8.04529040327624
2046.0,8.490165224232886,9.867558353002885
2047.0,7.470102281667977,10.99908208759507
2048.0,6.393587726199843,11.53140571728298
2049.0,7.817171518489378,14.780946761080514
2050.0,7.959949046495073,14.589206099434266
2051.0,9.106702633846613,12.793450975984413
2052.0,8.539582630849349,10.367614551721553
2053.0,6.625416807163463,11.096474467048818
2054.0,6.558341763141133,9.313461466411898
2055.0,5.980633921546589,7.714222022404556
2056.0,7.646970889063729,12.491266719118805
2057.0,9.717138735903486,11.104668240230788
2058.0,8.42033175976921,10.988604773144505
2059.0,7.729609231576186,10.302386572252818
2060.0,8.270390768423812,8.950957251508
2061.0,6.332913716233936,8.006556517178074
2062.0,5.898819826907946,7.208497246262784
2063.0,6.397010228166798,7.286467348544452
2064.0,6.931598666217077,7.310836986250047
2065.0,9.12566595481623,5.241608594657375
2066.0,11.027080289236071,5.1562305646097935
2067.0,12.53748079877112,6.2826036866359445
2068.0,10.544546850998463,5.527649769585254
2069.0,8.488029672923457,5.577516765951069
2070.0,6.819639578884268,6.197220036716496
2071.0,7.1079577385635595,6.301262597879434
2072.0,8.532621194698297,7.451765648461164
2073.0,7.08405253283302,10.512057939437955
2074.0,6.8958421594141495,12.790175311182391
2075.0,7.155316831083944,13.08690512215296
2076.0,9.561135992253224,12.848330609856966
2077.0,9.650295043273013,10.737647521636505
2078.0,7.210228166797796,8.934952793076318
2079.0,6.8905979543666405,6.964653815892998
2080.0,7.404169944925256,7.618214004720692
2081.0,7.865301902398677,6.665942928039702
2082.0,9.022704714640199,5.799081295049037
2083.0,12.372489070069715,5.693837882547561
2084.0,13.243060034641466,5.405022796505881
2085.0,14.966179899303423,5.5123363392442855
2086.0,12.336274399610353,5.081525607882806
2087.0,14.53917050691244,5.077760293731969
2088.0,11.089093701996926,5.286575999400547
2089.0,8.127945749503578,4.889550784908771
2090.0,6.203626690644787,4.870424487655015
2091.0,6.6202465250458955,4.866471844441946
2092.0,5.943557753549886,4.342193997976846
2093.0,5.777790266381926,4.360908171293694
2094.0,5.897943126896706,4.021130718219625
2095.0,6.589962908845678,3.5576936045858156
2096.0,7.019654565209247,3.488074631898393
2097.0,6.528874901652243,4.1850511408339885
2098.0,8.18300550747443,4.362785208497247
2099.0,7.956018882769472,4.353855232100708
2100.0,8.14145030159979,4.384185680566483
2101.0,8.389871648152528,4.511447495593837
2102.0,8.69645003567112,4.669865788551862
2103.0,8.949907887811111,4.8712816753139325
2104.0,9.268976990751183,5.092553951424919
2105.0,9.578126174900367,5.319535303406271
2106.0,9.887275359049552,5.546516655387622
2107.0,10.196424543198736,5.773498007368975
2108.0,10.50557372734792,6.000479359350327
2109.0,10.814722911497103,6.227460711331679
2110.0,11.123872095646288,6.454442063313031
2111.0,11.433021279795472,6.6814234152943826
2112.0,10.86022261897557,5.938462042809013
2113.0,11.747799669514855,5.311065933803935
2114.0,10.481210534810064,8.698647110822563
2115.0,7.168442886774908,10.764143278698747
2116.0,14.093583049523254,11.511705446402537
2117.0,12.605120685765847,10.645274080757952
2118.0,15.343108504398828,10.360703812316714
2119.0,12.542521994134898,11.41642228739003
2120.0,9.958944281524927,10.806451612903226
2121.0,9.947214076246334,9.853372434017595
2122.0,8.450635386119258,7.695992179863148
2123.0,11.52355816226784,6.991397849462365
2124.0,9.733919843597263,5.781622678396872
2125.0,10.614760508308894,9.90400782013685
2126.0,13.165151515151514,7.622091886608015
2127.0,8.392082111436949,8.130205278592374
2128.0,9.073313782991201,8.560117302052785
2129.0,9.897360703812318,7.956011730205278
2130.0,8.206256109481917,8.312805474095796
2131.0,10.045943304007821,10.402737047898338
2132.0,9.138807429130011,7.925708699902249
2133.0,9.570869990224828,8.605083088954057
2134.0,11.698924731182794,7.610459433040079
2135.0,9.542521994134896,9.997067448680353
2136.0,10.083088954056695,8.757575757575758
2137.0,10.227174975562072,8.160312805474096
2138.0,12.55347018572825,11.954056695992179
2139.0,10.372043010752687,13.283479960899315
2140.0,7.604887585532746,9.58357771260997
2141.0,6.675562072336266,8.281036168132943
2142.0,5.752297165200391,8.664711632453567
2143.0,7.752981427174975,6.193059628543499
2144.0,8.527517106549364,6.102394916911045
2145.0,8.641935483870968,8.724340175953078
2146.0,6.806451612903226,8.75366568914956
2147.0,6.747800586510264,7.84457478005865
2148.0,7.765395894428153,9.486803519061583
2149.0,6.970674486803519,8.771260997067447
2150.0,7.413137829912024,8.14850439882698
2151.0,5.79366568914956,7.417360703812317
2152.0,7.434956011730205,6.486099706744868
2153.0,7.037090336885774,8.366860739575138
2154.0,6.919676295380465,9.817838971938105
2155.0,6.610160728335394,9.998596905323891
2156.0,6.166370686748341,11.238814581694204
2157.0,6.525120827245138,11.76134277471807
2158.0,6.0447004608294925,9.469892473118279
2159.0,4.9,8.967741935483872
2160.0,5.225,10.630645161290321
2161.0,5.313358147229115,10.17235318444996
2162.0,5.396195202646815,11.059160463192722
2163.0,5.35616211745244,10.534822167080232
2164.0,6.0740488006617035,9.89079818031431
2165.0,6.68904052936311,10.438544251447478
2166.0,7.321774193548387,9.758064516129032
2167.0,9.029838709677419,10.441129032258065
2168.0,9.59032258064516,12.647580645161291
2169.0,8.312903225806451,12.936290322580644
2170.0,7.40097187758478,11.4383788254756
2171.0,6.515405293631099,12.83693134822167
2172.0,7.887138130686518,12.935401157981802
2173.0,10.453246484698097,13.224152191894127
2174.0,10.450846295063446,10.32840182372047
2175.0,10.183357686111425,9.439576074332171
2176.0,11.62339927316324,11.202449327488665
2177.0,8.955094413847366,8.341259225956314
2178.0,8.058221872541306,8.949720879697276
2179.0,14.663257277734068,6.605466262035893
2180.0,13.140365666329474,7.481960211307182
2181.0,9.95151923869469,7.869244314562962
2182.0,8.561275336255665,9.381401970701734
2183.0,8.93327338803342,8.701322543179348
2184.0,8.346259038627252,8.8372859765464
2185.0,6.214828968566183,9.382057622419541
2186.0,6.066876475216365,7.387883556254918
2187.0,7.163335955940204,10.617623918174665
2188.0,5.446734854445319,10.78048780487805
2189.0,6.292604248623132,13.103068450039338
2190.0,5.192800944138473,14.211565696302124
2191.0,5.648800157356412,14.797915027537371
2192.0,7.462785208497246,13.92462627852085
2193.0,7.6841856805664825,13.056333595594019
2194.0,6.143430369787569,13.281904012588512
2195.0,6.782140047206924,12.980389457120378
2196.0,6.855232100708104,12.251770259638079
2197.0,6.803304484657749,9.56569630212431
2198.0,7.455546813532651,10.352478363493312
2199.0,6.478663219811922,10.843842493724477
2200.0,7.854595181896519,8.388483009254054
2201.0,7.0479187741186164,13.972799820164099
2202.0,6.2267131242741,13.47876812408677
2203.0,7.924686223820763,11.165662582893109
2204.0,7.822404555842793,8.753722228466525
2205.0,8.44715821812596,6.613210445468511
2206.0,8.251612903225805,8.879032258064516
2207.0,8.141129032258064,10.916935483870967
2208.0,7.717859952793076,10.614280094413846
2209.0,5.477478363493312,11.602301337529504
2210.0,6.00676027355807,7.832385160079889
2211.0,6.061444652908067,7.100063547781879
2212.0,6.076690068389517,6.50245112872965
2213.0,7.627644798160139,7.869242873570174
2214.0,8.543021848332627,9.525337408460931
2215.0,5.790617623918174,10.980782848151062
2216.0,6.060228166797797,10.817407553107788
2217.0,6.0276947285601885,10.90991345397325
2218.0,6.995751376868608,13.007701385946863
2219.0,6.212903225806452,11.987406947890818
2220.0,6.745967741935484,10.274751861042184
2221.0,6.135483870967741,9.58697270471464
2222.0,7.22588512981904,8.407628759910427
2223.0,6.929071597167584,9.872797010228165
2224.0,6.097600314712825,8.501317859952792
2225.0,6.6883162863886705,6.188158929976396
2226.0,7.370440194476386,7.277268050596138
2227.0,6.803866832092638,6.991191066997518
2228.0,7.09600304625875,5.6272045028142585
2229.0,8.133259194254473,4.924833565333172
2230.0,8.481155560935262,7.193720873933305
2231.0,8.511344648008691,6.165157731070398
2232.0,8.209358959949046,6.083174103630437
2233.0,7.472893484695215,5.298078003821512
2234.0,8.037148794033136,5.451203661274471
2235.0,7.244695561454019,5.943461783430312
2236.0,8.683023663983537,8.466354547629134
2237.0,8.16757679771055,6.892903398725585
2238.0,6.129657793033088,7.52851306836358
2239.0,8.42264527368776,7.868061331534975
2240.0,7.5301562324379,7.038859540669139
2241.0,8.51215578284815,6.781746656176239
2242.0,7.4278384675906315,10.080568500474087
2243.0,7.569161169279186,7.581413282495108
2244.0,6.348290262058947,6.1628840606023925
2245.0,7.95746535132845,4.968224091670197
2246.0,8.122084367245655,4.970264681555005
2247.0,8.370967741935484,6.608870967741936
2248.0,7.675806451612903,8.162903225806451
2249.0,5.816935483870967,11.190322580645162
2250.0,4.926033912324234,9.953246484698099
2251.0,5.993258891645988,7.476220016542596
2252.0,8.497435897435897,5.383271298593879
2253.0,8.587427626137302,6.575909842845327
2254.0,8.267907361455748,9.102067824648469
2255.0,12.147954366640441,10.8456333595594
2256.0,9.977894234011464,11.830650781162188
2257.0,8.548528530216178,11.340479000412124
2258.0,9.283853171481024,10.264722191000711
2259.0,7.964969465362857,7.9900715597017715
2260.0,8.362500468322656,9.093776928552696
2261.0,6.673185718032295,9.566857742310141
2262.0,9.0816005395077,13.017683863474577
2263.0,8.408227492413172,12.680753812146417
2264.0,8.618598029298266,12.057772282791952
2265.0,9.338110224420216,12.019950545127571
2266.0,8.628170544378255,11.952193623318722
2267.0,9.11595668952081,10.91247986212581
2268.0,10.328867408489753,12.200693117530253
2269.0,9.391326664418717,11.331763515791838
2270.0,7.567820613690008,11.125727773406766
2271.0,7.67053501180173,9.733359559402045
2272.0,7.408516915814319,8.342918961447678
2273.0,8.100629425649094,9.386782061369
2274.0,7.460540862232443,10.876590207589421
2275.0,6.62901157981803,9.700372208436725
2276.0,6.260070306038047,7.591315136476426
2277.0,6.961889991728701,8.404528535980148
2278.0,6.1894127377998345,10.961538461538462
2279.0,5.448387096774194,10.508064516129032
2280.0,5.262903225806451,10.431451612903226
2281.0,5.025806451612903,9.693548387096774
2282.0,5.783064516129032,10.273387096774194
2283.0,6.494727047146402,10.438771712158808
2284.0,7.94454094292804,9.572208436724566
2285.0,6.8448511166253105,7.290942928039702
2286.0,5.680086848635236,10.031761786600496
2287.0,8.612830599770017,7.321624402348242
2288.0,14.198898505114084,5.716522423288749
2289.0,10.626101494885916,5.247423288749016
2290.0,11.628265145554682,4.680291109362706
2291.0,11.091266719118803,4.439811172305271
2292.0,8.99940054700086,3.7399497958113224
2293.0,7.774680603948896,5.325128320407628
2294.0,7.58678955453149,5.843917425349368
2295.0,7.697013974748042,4.894421340526769
2296.0,5.9220711101120225,7.7253381289573255
2297.0,6.636506687647522,9.77970102281668
2298.0,6.365853658536585,10.129819040125884
2299.0,6.286388670338316,8.626278520849723
2300.0,5.780871108959229,10.125340434545784
2301.0,6.71718614456616,10.830962900199722
2302.0,6.840182372047045,8.970949585426375
2303.0,6.327801650224938,8.860219088543243
2304.0,5.979321753515301,10.793052109181142
2305.0,6.103225806451613,8.851612903225806
2306.0,8.091129032258063,8.792845326716295
2307.0,7.249193548387097,7.918196856906534
2308.0,7.479032258064516,9.50748552522746
2309.0,8.474193548387095,12.241645988420181
2310.0,8.614516129032257,12.561952026468155
2311.0,7.436290322580645,9.687096774193549
2312.0,7.059677419354838,8.975
2313.0,7.225806451612903,9.470967741935484
2314.0,6.739516129032258,10.495161290322581
2315.0,6.498655913978494,9.674669148056246
2316.0,6.359408602150538,9.93935070306038
2317.0,5.755913978494624,9.778949545078577
2318.0,7.803763440860215,9.876571546732837
2319.0,7.941397849462366,9.628205128205128
2320.0,7.094354838709677,9.004838709677419
2321.0,8.427419354838708,7.926612903225807
2322.0,8.41862519201229,6.709024577572965
2323.0,8.645199692780338,8.845238095238095
2324.0,7.881598666217077,9.066423138885767
2325.0,7.143218687947249,7.6235341500880445
2326.0,6.512738376231688,6.125476752463377
2327.0,5.548151062155783,9.191463414634146
2328.0,5.542969540294481,8.695616499943801
2329.0,5.1981566820276495,7.965668202764977
2330.0,4.648488254467798,7.847409239069349
2331.0,5.727076542654828,7.04538046532539
2332.0,5.947448578172418,7.369248061144206
2333.0,7.308516915814319,7.06066089693155
2334.0,7.238080251770259,6.144295830055075
2335.0,6.021816342587389,5.0864785882881876
2336.0,6.7410419242441275,4.5455996403282
2337.0,7.0231566820276505,4.6894009216589865
2338.0,5.916151511745532,4.5638979431268965
2339.0,6.406148139822412,6.627739687535125
2340.0,5.265932336742722,6.457120377655389
2341.0,6.319433516915813,8.104799370574352
2342.0,9.210857592446892,12.696774193548386
2343.0,8.0507474429583,11.701258851298189
2344.0,8.143784421715184,11.779819040125883
2345.0,6.850019669551534,9.641679779701022
2346.0,7.0826121164437446,7.964594807238395
2347.0,5.904012588512982,8.707317073170731
2348.0,6.626803042223971,10.512832040762804
2349.0,7.020718594282717,8.289460866958901
2350.0,5.624442696039864,6.61758645236222
2351.0,5.463676894833465,5.459068599902588
2352.0,5.645528455284553,5.347551609156644
2353.0,10.44642014162077,5.253268892135926
2354.0,10.485714285714286,5.020549998126709
2355.0,9.118714173316848,5.022170394515005
2356.0,8.577265745007681,4.480606758832565
2357.0,9.159754224270353,4.672811059907834
2358.0,10.153834625903862,4.440017234273725
2359.0,7.728541455921471,4.093271140084672
2360.0,7.36649057734817,3.9168258963695624
2361.0,6.060095163163613,4.299070847851335
2362.0,5.507159716758458,4.380487804878048
2363.0,5.449252557041699,4.779858379228953
2364.0,6.96405011196514,6.021261272166072
2365.0,6.723567148822853,5.775461477939841
2366.0,6.806079404466501,4.954528535980149
2367.0,6.7530397022332505,5.2050868486352355
2368.0,5.970471464019852,4.545285359801489
2369.0,7.4564516129032254,3.950806451612903
2370.0,16.96721085759245,4.278914240755311
2371.0,18.792129434797722,4.749190803798511
2372.0,13.92167915672298,4.683408765954555
2373.0,11.903082281894516,4.453513138737646
2374.0,9.496023831741908,4.361109441123347
2375.0,9.605604362763163,7.569225058877961
2376.0,7.651414334419842,17.14612790828369
2377.0,7.474478288561688,12.820759806676408
2378.0,7.554366640440598,12.729504327301338
2379.0,7.881274586939418,10.928560188827694
2380.0,9.04032258064516,10.493548387096773
2381.0,7.801612903225806,7.149193548387096
2382.0,6.956451612903226,6.110483870967741
2383.0,5.225,6.984677419354838
2384.0,5.435483870967742,8.818548387096774
2385.0,6.759677419354838,8.079032258064515
2386.0,5.983870967741935,7.218548387096774
2387.0,6.324999999999999,6.041935483870967
2388.0,12.844313482216707,9.522208436724565
2389.0,20.587882547559964,9.841749379652606
2390.0,21.362489660876758,10.155955334987592
2391.0,16.978943492908876,9.042454457422984
2392.0,21.298342714196373,8.803888519034071
2393.0,105.59640047206923,12.659264358772617
2394.0,75.96868607395751,12.7493115656963
2395.0,52.77012698296525,12.676934477521819
2396.0,39.01510732648319,8.865779816034149
2397.0,58.94417040671317,6.705201735974063
2398.0,33.60124874424181,5.032570860485156
2399.0,19.72713892758904,4.968606437323617
