time,emg_right_hand,emg_left_hand
0.0,6.341463414634147,5.219512195121951
1.0,6.747967479674797,6.6016260162601625
2.0,5.763414634146342,6.27212543554007
3.0,7.567642276422764,5.905853658536585
4.0,6.861762391817466,5.309284028324154
5.0,6.576435877261998,5.138512981904013
6.0,21.567918961447678,5.032277734067662
7.0,17.768963320969615,4.950451463039976
8.0,13.709422651830204,5.053903937656888
9.0,41.10876325353115,5.7485294668614895
10.0,24.310951256978008,6.26498070510659
11.0,13.531950844854071,6.073088306919935
12.0,13.925806451612903,5.6929189614476785
13.0,12.484933123524783,5.408221872541306
14.0,18.755999213217937,5.942977970102281
15.0,37.94130605822187,6.0630212431156565
16.0,91.99858379228954,7.808851298190401
17.0,116.57663444606797,9.619248997789516
18.0,92.60552152410926,6.385949383687385
19.0,111.80750346558764,5.988692817803754
20.0,151.9263422127309,5.2735753624817345
21.0,95.11738039039376,4.926716870855344
22.0,54.21045670825372,5.249840770297103
23.0,30.59501330036342,5.076302873627814
24.0,16.636113296616838,5.317702596380801
25.0,9.134500393391031,6.726435877261998
26.0,6.68440204563336,6.525609756097561
27.0,5.658733280881195,5.73780487804878
28.0,4.247915027537372,5.255192761605036
29.0,4.6241935483870975,5.389516129032258
30.0,6.088709677419354,5.855645161290322
31.0,6.776612903225806,6.29758064516129
32.0,5.610955940204564,5.309303697875688
33.0,6.0926435877262,6.404543666404406
34.0,9.095476003147128,5.542741935483871
35.0,11.213060582218725,5.262096774193548
36.0,11.758143194335169,5.683870967741935
37.0,69.85623618448167,5.512311265969803
38.0,65.1370087295343,6.526415271065153
39.0,49.3562446863391,5.106224440390451
40.0,69.13576443226324,4.561157535095379
41.0,56.52859650184591,4.934476617010056
42.0,39.743560923734016,5.527530167183983
43.0,23.29270886469942,5.399091598147459
44.0,17.94155707916526,5.594417593945524
45.0,17.532362968790977,6.004937994080402
46.0,11.510449215091228,5.358619010153236
47.0,10.817820613690007,6.19390243902439
48.0,9.930468135326514,6.817250196695515
49.0,14.132572777340677,6.219512195121951
50.0,13.45155742500353,5.561651435372914
51.0,16.88935070306038,6.214185277088502
52.0,12.125389356250881,6.833685872218524
53.0,16.276577166604703,6.529842168060107
54.0,11.432869621854673,5.868137055705899
55.0,9.585849162639091,5.699254430332322
56.0,12.794537484545351,5.591562699037128
57.0,11.87689108688322,6.10805514967592
58.0,8.25987411487018,5.585287175452399
59.0,8.12104642014162,5.818135326514556
60.0,6.161231313926042,5.841404405979544
61.0,5.287883556254917,6.054248623131392
62.0,5.817778987429784,6.08865844509908
63.0,8.387518525972958,6.63949051287212
64.0,7.162307650083252,6.899987191919932
65.0,5.3566849029330506,6.27170878085375
66.0,7.9302700675168785,6.596436609152288
67.0,9.641129032258064,6.695967741935484
68.0,8.42332808811959,5.939594807238395
69.0,7.299783634933124,5.737647521636506
70.0,6.840066876475216,6.01294256490952
71.0,5.972619984264359,6.067486231313926
72.0,6.106490037143432,5.721168096902275
73.0,46.01971311643242,6.683839078236458
74.0,104.66762509442691,6.446917478498545
75.0,64.84061259217243,5.911911775853371
76.0,50.538323605291566,6.482313086982547
77.0,57.73129519313626,6.213667528380353
78.0,40.17670750440223,6.3764190176463975
79.0,31.632572777340673,5.769716383799782
80.0,48.22794200292233,5.957401371248736
81.0,45.28399085834177,5.937600689370949
82.0,28.444606796298373,6.7441459668052905
83.0,18.157206549024018,7.357348919111311
84.0,12.414559214716572,6.225881383237795
85.0,23.88563560750815,8.703907684238132
86.0,16.38605897118879,7.752721891274212
87.0,22.30247649020269,6.4650706230564605
88.0,30.20080551496759,5.760859465737514
89.0,17.227546738601028,5.54659810422989
90.0,11.022836349331236,6.879366640440598
91.0,8.65456333595594,7.175570416994493
92.0,9.053579858379226,6.813886703383163
93.0,11.052360346184106,6.596951219512196
94.0,18.019354838709674,6.120535011801731
95.0,17.96726986624705,5.46927616050354
96.0,32.04327301337529,5.963021243115657
97.0,87.91156569630212,5.7683713611329654
98.0,100.22344610542879,6.665774980330449
99.0,64.15814319433517,8.881667977970103
100.0,36.71745375368232,7.086050171079355
101.0,20.412153125389363,6.756355421608015
102.0,10.793173336888229,6.874951904352395
103.0,8.147393120057018,7.109653371531036
104.0,7.790218983317257,6.539877826599507
105.0,6.257450076804915,7.417050691244238
106.0,7.62258064516129,6.959677419354838
107.0,7.385837922895357,7.005822187254131
108.0,6.6485641227380015,6.377911093627064
109.0,8.418273013375295,5.897403619197482
110.0,7.665991345397324,6.042250196695515
111.0,11.394919635832302,5.7058409201603535
112.0,9.472833539395301,6.087774905398824
113.0,7.157345172530066,6.500299726499569
114.0,6.942297028961073,5.964266981379492
115.0,18.254673860102656,5.621726424637518
116.0,14.267198681203402,6.155947697725825
117.0,12.345374845453524,5.83661908508486
118.0,9.215960436102058,5.904147465437788
119.0,7.388087744932749,6.180645161290322
120.0,155.67100239781198,8.891013824884793
121.0,173.55405942077854,10.84651005957064
122.0,125.64734180060694,7.637475178899254
123.0,86.25913603836499,5.147462627852085
124.0,49.62603499306882,4.473174478288562
125.0,23.344477971543277,3.839239962764746
126.0,13.166102085692959,3.883978754002358
127.0,34.883208399258756,4.702414239314319
128.0,48.12862416890741,4.66610727326699
129.0,110.83850563284079,4.826525218814755
130.0,117.0957200101419,4.734025492435827
131.0,74.72225024897338,3.3315288752501715
132.0,68.51604251237025,3.4998321008823634
133.0,106.30832847584719,4.011667202514914
134.0,105.95861892302344,3.9001500375093774
135.0,73.79614476789929,3.4241935483870964
136.0,53.87210857592447,3.537903225806452
137.0,39.327812745869394,3.6475019669551534
138.0,26.243961447678995,3.2362116443745084
139.0,14.495677272976781,3.044784366823413
140.0,37.81440039888021,3.0611018608310614
141.0,45.99261522697748,2.957930946151172
142.0,30.539029879421076,3.418383254350173
143.0,20.203013122618636,4.04679606312728
144.0,78.12048630624554,5.912370274624405
145.0,71.98368925855156,4.278736278146192
146.0,52.83157712337491,3.9768189651942603
147.0,42.75685999025889,3.6832059495710165
148.0,96.02913622569403,3.8064413098048027
149.0,82.79545914353153,3.0768536210707724
150.0,76.3383275261324,2.9923213817391625
151.0,62.15787344048555,3.3082574650631296
152.0,92.77862950058072,3.9095050766175863
153.0,112.8405891542572,3.9315333188697865
154.0,109.49728682170542,3.375324188189904
155.0,65.1105151287822,3.825434037080699
156.0,48.77142499910691,3.525524238202408
157.0,26.11431429285893,3.9591326403029328
158.0,46.422087664773336,6.57325045547101
159.0,140.8428579270253,5.809366975890313
160.0,105.68765623461613,6.056078479550202
161.0,171.32490788202279,6.3243563504116445
162.0,161.66380427859576,5.27193061331535
163.0,83.49862500468322,4.001041549586002
164.0,41.14293956764453,3.8686561013075567
165.0,21.45818253343824,3.8337136113296615
166.0,15.334207367507918,5.676565494563134
167.0,12.398152070850733,5.195944037604148
168.0,13.180980048013879,4.640458250116
169.0,9.249793721882629,4.235738566442737
170.0,9.648156105630536,4.06953136032601
171.0,7.48007474429583,3.4623918174665618
172.0,7.324311565696302,3.7844217151848936
173.0,5.466089693154997,3.6075531077891423
174.0,4.904956726986624,3.935562549173879
175.0,7.209677419354838,4.782258064516129
176.0,5.84857910906298,5.365783410138249
177.0,12.03421658986175,4.902073732718894
178.0,14.463636619085085,4.9256828144318305
179.0,13.548350567607057,5.762034955603012
180.0,35.65280431606159,5.307227155220861
181.0,43.68892135925967,5.243014499269417
182.0,28.69154209284028,6.459756097560975
183.0,19.001947285601887,5.832159716758458
184.0,14.514280094413847,5.972128245476003
185.0,11.265396575624742,5.389769959911581
186.0,11.83911149825784,5.007327376269155
187.0,7.980442845903113,4.56213143007006
188.0,15.255760368663594,4.416628264208908
189.0,22.678494623655915,4.628725038402457
190.0,19.81236559139785,5.468740399385561
191.0,20.185724588812707,5.303073133265895
192.0,29.241153385036153,4.8568169045745755
193.0,18.581581806601474,5.380296729234573
194.0,21.112142669813792,5.075939455247087
195.0,13.572087969727622,4.954673860102656
196.0,12.270551871417332,5.122835412685924
197.0,8.694378254842457,4.781482522198495
198.0,6.314537671874415,5.720402944812858
199.0,5.920122887864823,5.451950095537821
200.0,7.734805739762466,5.769877486793302
201.0,11.556726986624705,6.231943351691582
202.0,13.369944925255705,5.67663257277734
203.0,27.303147128245477,4.511959087332809
204.0,25.190706605222733,4.5811827956989255
205.0,17.436182259850675,5.049724931232808
206.0,12.361973899398194,4.079288114711605
207.0,8.598728885182968,3.802547283162254
208.0,7.407832184526968,3.626273641581127
209.0,7.066444659945474,3.7394415677090005
210.0,90.7062155782848,3.6643194335169156
211.0,59.01597167584578,6.009972462627852
212.0,102.46946817279232,5.650857967105017
213.0,183.019834401109,4.88465400322206
214.0,179.31605410063315,7.657197182570904
215.0,125.38060769547788,6.750372784833839
216.0,70.73160990596081,6.226484582818179
217.0,38.41249519696998,5.75343805463561
218.0,29.953728022597986,5.022610900983086
219.0,15.977363243249837,5.860979029600605
220.0,27.847650937124524,4.989980073415566
221.0,31.29348190706213,5.019267883172883
222.0,24.37052189876737,4.605132816305121
223.0,31.92515454647634,6.022584391742535
224.0,35.39383687385261,5.7014611666854
225.0,36.770785168149445,4.847976846127908
226.0,31.467676874659563,5.388611329661684
227.0,25.80317407481058,4.5554999812670935
228.0,41.50521747463132,4.4942087220411375
229.0,42.16722801713561,5.172357549317643
230.0,96.0921807106829,4.6844890665175
231.0,117.08855785374914,6.351498588932948
232.0,94.99812453113277,7.256492694602222
233.0,60.041688993676985,6.20965955774658
234.0,33.38604860274302,5.25143655251792
235.0,18.74264027679394,5.319420273186763
236.0,12.529461459441515,4.879833024458205
237.0,9.68318534337417,4.581476902326626
238.0,9.298505114083397,4.065853658536586
239.0,9.890322580645162,3.911290322580645
240.0,11.202222659323366,4.878009441384736
241.0,26.291485605923054,5.330051039964493
242.0,39.95783957715507,6.477928745788699
243.0,34.17488753051302,6.6002546954749945
244.0,40.09515422945793,8.21170287881539
245.0,32.59989812181,6.038581573160645
246.0,28.4632769472856,5.2555271439811175
247.0,19.545082612116445,7.8565106215578275
248.0,18.653186467348544,6.827852084972463
249.0,14.846262785208497,6.380487804878049
250.0,94.40527143981119,6.455940204563336
251.0,61.13088868907123,5.170553744707954
252.0,41.75249241317298,4.3105588025926345
253.0,23.216972013038106,5.145198756135026
254.0,14.35907609306508,4.942386946910943
255.0,7.948499494211532,4.6834476040612945
256.0,7.010348057397625,4.5755179648570685
257.0,4.568922108575924,4.615715971675845
258.0,3.7247836349331234,4.611487018095987
259.0,4.891690082799446,4.514353152748117
260.0,4.530030721966206,3.797695852534562
261.0,4.69708732128087,4.606230060262318
262.0,5.362253338059789,6.086582772066643
263.0,6.535985048258848,5.8384723459074355
264.0,7.941496701567512,5.919404769109725
265.0,8.497007202081946,5.804657144586334
266.0,7.098131392604248,6.105802517702596
267.0,9.747757671125097,6.8851298190401256
268.0,7.448701809598741,6.02383949645948
269.0,8.73654602675059,5.5352871754524
270.0,6.637588512981903,5.3610346184107005
271.0,6.827261998426435,5.3905979543666405
272.0,5.1681549960660895,4.988768686073957
273.0,5.556875264782424,5.150370695394299
274.0,5.159082793681534,5.138491799310053
275.0,4.858190098650366,5.55697209949767
276.0,5.787562791260666,5.3873570174907695
277.0,12.186070931428915,5.928926345094716
278.0,9.396400472069235,4.8678402832415415
279.0,12.348411449552284,4.514085272189128
280.0,8.429516503690381,5.446657112884493
281.0,6.635322767974223,5.5035704919261175
282.0,5.502791203027238,5.48703308231239
283.0,5.09679292645461,5.6103930163725595
284.0,4.113296616837136,5.39567269866247
285.0,11.22258064516129,6.195161290322581
286.0,14.872934697088905,5.500590086546026
287.0,30.50932336742722,4.851986624704956
288.0,24.694964594807235,4.8899291896144765
289.0,15.620062942564907,4.5167387883556245
290.0,13.018095987411488,4.274901652242328
291.0,13.817151848937844,4.278914240755311
292.0,13.599763965381587,3.7201022816679776
293.0,11.160228166797797,3.391522423288749
294.0,9.668056648308418,4.410483870967742
295.0,6.487588512981904,4.5934697088906375
296.0,6.241542092840283,4.317073170731708
297.0,6.24390243902439,4.223131392604248
298.0,6.09897718332022,4.706372934697089
299.0,5.776081825334382,5.249724626278521
300.0,8.964532596563775,6.941249336724424
301.0,12.270565725054958,5.224062156654146
302.0,16.478909927830387,4.610418175101266
303.0,13.781528134646901,5.231202399903111
304.0,10.136451896410177,6.333781917738882
305.0,7.276553029975531,5.145735670047236
306.0,5.985281123282697,5.367645100768625
307.0,4.988706651334503,5.535435453610119
308.0,10.563889873567293,5.7458938910551804
309.0,10.523348694316436,6.206989247311828
310.0,8.07699692780338,6.534139784946237
311.0,5.725192012288787,5.784408602150537
312.0,5.035176651305683,6.104301075268817
313.0,8.066359447004608,6.5948540706605225
314.0,11.014516129032259,5.550806451612903
315.0,16.845506912442396,4.976420890937019
316.0,13.257834101382489,5.826113671274962
317.0,8.90021917500281,5.956959274661871
318.0,7.055754748791728,6.335737701847064
319.0,4.672232213105541,5.571497883181596
320.0,4.003787145191551,6.008837680808569
321.0,15.939393572595776,5.865305937178478
322.0,225.63846153846154,9.969789081885855
323.0,229.09342431761786,11.689330024813895
324.0,150.63300248138955,8.274158099964552
325.0,91.3884024577573,7.315207373271889
326.0,53.310526956652055,6.774932561537597
327.0,24.792763478326027,5.977385635607508
328.0,11.189674422089842,5.419377318197145
329.0,9.110966243302986,5.237169832527819
330.0,7.78704994192799,6.436173241916751
331.0,17.724704020081674,5.366619834401108
332.0,19.942725228345413,5.668174883442115
333.0,14.439891331717945,7.207808920871332
334.0,13.973289489619791,5.347806899460056
335.0,12.817673930677792,4.284118503493469
336.0,9.783064232957194,5.823159622658277
337.0,6.37270240905174,5.512329998876025
338.0,27.728208010190702,5.8298078003821505
339.0,21.093687010602824,5.219152523322468
340.0,25.651298190401256,5.587686860739575
341.0,24.4741935483871,6.354032258064516
342.0,22.928225806451614,6.77016129032258
343.0,15.879838709677419,7.323387096774193
344.0,10.326612903225806,5.858870967741936
345.0,20.42741935483871,5.595967741935484
346.0,17.99073564122738,5.3392407553107795
347.0,12.358405455022293,5.368833127271365
348.0,8.67517046944663,5.951755273313102
349.0,6.784762654078154,5.162974410850099
350.0,8.11334906897456,5.6177775280056945
351.0,6.253763440860215,4.674270353302611
352.0,5.669354838709678,4.726612903225806
353.0,5.667741935483871,5.934677419354838
354.0,7.903225806451613,5.438709677419355
355.0,11.039093701996928,5.521927803379416
356.0,11.812721516616087,5.456961147952493
357.0,8.592769098197895,5.307237458319284
358.0,6.110017421602787,5.143922108575924
359.0,4.894121614027201,5.640912667191188
360.0,5.020486306245551,6.497568468772245
361.0,7.653122775467386,7.098115469633958
362.0,6.785176651305683,7.311213517665131
363.0,7.294354838709677,7.290322580645162
364.0,11.84274193548387,7.185483870967742
365.0,10.441266719118804,6.748013375295043
366.0,30.798705556179986,5.52444831591173
367.0,51.25698456408527,5.1219999250683745
368.0,103.67936757708591,6.712376831141582
369.0,64.21449177625416,5.577348169795061
370.0,52.38722790453711,4.873796410775167
371.0,32.3001760893185,7.250196695515342
372.0,16.96204713199206,6.812116443745083
373.0,11.098647484170694,7.288434303697875
374.0,18.662020905923345,5.937892922708029
375.0,20.022423288749017,5.3805271439811175
376.0,77.1815499606609,5.294512195121952
377.0,98.53643550260387,5.457682364842082
378.0,127.8197519763216,5.9213217938630995
379.0,79.66400659398299,6.424075531077891
380.0,67.32434153834625,6.526244801618523
381.0,92.00488928852423,5.388951331909633
382.0,49.23818890262635,5.838709677419355
383.0,27.54006219324866,5.473732718894009
384.0,16.374201041549586,6.665033157244015
385.0,12.54270727960736,6.207170956502193
386.0,8.188788355625492,5.098977183320221
387.0,12.579838709677418,5.170967741935484
388.0,20.237903225806452,5.005645161290323
389.0,29.350806451612904,4.970161290322581
390.0,25.929878048780488,6.9489771833202205
391.0,17.25889063729347,7.0615853658536585
392.0,12.617348544453186,7.161841070023604
393.0,10.267545239968529,6.702694728560189
394.0,7.445869394177812,6.354169944925255
395.0,6.500668764752163,5.980389457120377
396.0,6.627024090517402,6.230920535011801
397.0,5.748803903937657,6.452480236783934
398.0,6.588986924431456,6.663612266306995
399.0,5.848525720280245,6.396725487992207
400.0,7.9617923644674224,6.693406017009479
401.0,42.954936120789775,6.996703008504739
402.0,29.43591660110149,8.190440597954368
403.0,17.895771046420137,7.559815106215578
404.0,25.949095200629426,8.300472069236822
405.0,23.485031471282454,6.889752163650669
406.0,19.11909913453973,5.6815892997639645
407.0,13.130152485856655,4.484957476302873
408.0,10.767279232700162,3.95609006781312
409.0,9.640504794183002,4.215824190234104
410.0,7.906139493865695,3.8381540306009225
411.0,6.445673995555978,4.206803215143105
412.0,6.522760192862474,4.834430793439449
413.0,5.617162944582299,5.547270471464019
414.0,8.071931549960661,4.411231313926042
415.0,10.81083136637818,3.3407731070398254
416.0,13.601195878237853,3.132980326963273
417.0,154.81018684549187,5.444774978587852
418.0,212.62860837160508,8.350564121866704
419.0,359.3678802976005,9.098739406105881
420.0,401.4043702563271,7.747367155377694
421.0,388.84275598516354,7.500018732906223
422.0,261.4843205574913,7.717357910906298
423.0,179.5401071522236,7.636675283803529
424.0,160.6310366790304,5.2757109137911655
425.0,131.0703570491926,4.472237832977408
426.0,72.18963320969615,4.301940729084709
427.0,37.81574500768049,3.661827956989247
428.0,20.825,2.9846774193548384
429.0,16.208870967741937,3.5451612903225804
430.0,91.30806451612902,3.1959677419354837
431.0,62.526612903225804,2.7814516129032256
432.0,43.836290322580645,2.5266129032258062
433.0,55.66451612903225,2.8491935483870963
434.0,101.0242703533026,3.3373655913978495
435.0,78.38102918586789,6.402649769585254
436.0,52.73051834387168,10.724102454184974
437.0,55.5892560248076,8.169958386809245
438.0,46.374643748045024,8.830396187897147
439.0,42.42749084483664,9.566273362765777
440.0,96.40176385559803,7.2789124110295855
441.0,73.9575924468922,6.789457120377655
442.0,104.24219439006092,6.138530364298392
443.0,100.68713068946678,4.897877823114315
444.0,62.03250122199539,4.375728840746772
445.0,37.52713770777189,4.4406870010185475
446.0,26.49976082870892,4.217747119706756
447.0,13.299617848713048,3.813899816417519
448.0,89.19036191974823,4.967702596380803
449.0,112.8540322580645,5.166935483870968
450.0,116.72062211981566,5.398348694316436
451.0,110.76271121351766,4.857718894009217
452.0,210.84428833689256,4.58838934472294
453.0,131.66108426061217,5.047612491101869
454.0,75.94659248435802,5.459162264433704
455.0,93.65883369797152,6.024181568040094
456.0,54.43604455120749,5.132983594330638
457.0,35.16019379409312,5.254139318801826
458.0,23.731786605187878,4.528759367542234
459.0,17.562982208966872,4.398132634203847
460.0,11.665093102543928,4.7242890862088345
461.0,8.911146079202727,4.9130493424749915
462.0,7.52646210333071,4.099404293582106
463.0,7.491188040912666,4.516522423288749
464.0,7.55558615263572,4.04669551534225
465.0,32.471734854445316,4.949783634933123
466.0,243.43914492929048,11.061357905142327
467.0,179.69450362121486,13.470352438015695
468.0,108.26580019770421,9.249692348040107
469.0,74.8595130020779,8.334523593374891
470.0,62.70914281103108,7.492596179063527
471.0,199.47698662470495,6.714122738001574
472.0,119.13629032258065,5.3782258064516135
473.0,74.28375295043273,4.722934697088906
474.0,42.30615656963021,4.232710464201416
475.0,37.25389457120377,3.6460070810385528
476.0,26.998505114083397,3.887018095987411
477.0,32.655704169944926,4.840283241542092
478.0,33.39826907946498,7.250660695192559
479.0,33.02061369000786,6.066400371199741
480.0,33.65900865460267,6.027220641933466
481.0,27.530414746543777,5.059618338650596
482.0,54.92772657450076,5.570707786836818
483.0,47.13262803941403,6.534773893821887
484.0,50.24567269866247,6.61773256903076
485.0,42.32525570416995,6.555640478063767
486.0,46.234056423513536,5.134348656850624
487.0,25.65650593833127,3.9789254804990444
488.0,17.396466973886326,3.7513824884792624
489.0,13.538709677419355,3.7814516129032256
490.0,11.90483870967742,4.289516129032258
491.0,11.093548387096774,4.9362903225806445
492.0,10.949193548387097,4.433870967741935
493.0,11.957258064516129,3.7193548387096778
494.0,10.845967741935484,4.45483870967742
495.0,13.994177812745871,4.427714398111723
496.0,9.417427222659324,4.717977970102282
497.0,80.21827301337528,5.569099134539732
498.0,136.958910306845,7.292800944138474
499.0,76.12517327938255,7.065640103405642
500.0,47.018058521599045,5.206623955640477
501.0,33.23404893035105,5.754224270353303
502.0,20.101419954291707,4.827057809748604
503.0,14.888632872503841,3.961443932411674
504.0,12.916589861751152,3.432565284178187
505.0,10.09247311827957,3.4811059907834103
506.0,8.99784946236559,3.962135176651305
507.0,10.54937965260546,4.471112489660877
508.0,9.4674317617866,4.234346567411084
509.0,8.916377171215881,4.068382961124897
510.0,9.083995037220843,3.4483043837882548
511.0,9.519869273134418,4.194451169077448
512.0,8.861919748229738,4.0948269079465
513.0,9.182572777340674,3.789752163650669
514.0,8.300157356412274,4.322698662470495
515.0,7.498465774980331,3.4186073957513767
516.0,7.254032258064516,3.513709677419355
517.0,7.2189417781274585,3.8068056648308417
518.0,7.208025177025964,4.440184893784422
519.0,7.638690007867821,4.839044059795436
520.0,7.026199842643588,4.120731707317073
521.0,7.236466339849502,4.410097036454236
522.0,6.985660392584075,4.087345921846315
523.0,8.121469063325868,4.593633621820089
524.0,8.976057112308096,4.767381327039077
525.0,8.61665758841211,4.613126147390506
526.0,10.833556254917386,4.966778127458694
527.0,10.26778127458694,5.3933910306845
528.0,10.288808025177026,6.278992918961447
529.0,11.733286501067775,5.492837473305609
530.0,97.66679686036491,5.562912592259563
531.0,408.06554831216516,4.98708178786857
532.0,288.1051206399161,5.804694466299502
533.0,264.92538683451346,11.41096249672174
534.0,301.7756734479787,9.549567269866246
535.0,231.59098572552546,8.113109287774906
536.0,151.5936832640216,6.150181709190363
537.0,85.84860814506763,5.84613540144618
538.0,50.08378479637331,7.118110973736465
539.0,30.38943464089019,7.720422614364393
540.0,19.821675845790715,7.185326514555468
541.0,25.486290322580643,6.208870967741936
542.0,89.31144393241166,5.115898617511521
543.0,104.89443164362518,4.457142857142857
544.0,78.48874807987711,4.520506912442396
545.0,64.87377112135177,3.6768049155145928
546.0,57.16936982503466,3.8819901839571394
547.0,46.87385541942977,4.308506612715897
548.0,38.686639691281705,6.0843992356974255
549.0,28.86751339402795,5.534135101719681
550.0,21.25440785283429,5.350447716458731
551.0,20.586055224607545,5.382934322430781
552.0,14.20116893334832,5.234785133565621
553.0,14.126160503540518,4.802261998426435
554.0,10.64213217938631,4.435759244689221
555.0,11.740735641227381,3.6711447678992917
556.0,7.844158143194336,4.032749803304484
557.0,6.373288749016522,3.9474232887490164
558.0,9.363257277734068,3.3337922895357983
559.0,10.375570416994492,3.703088119590873
560.0,9.574527930763178,5.189870180959874
561.0,7.648210070810386,4.739142407553108
562.0,8.970517359640098,5.1916969275151805
563.0,21.464578956317744,7.0119198923290185
564.0,18.498929918756826,7.427360418233746
565.0,19.64246259903223,6.729809241374937
566.0,13.123119576463399,5.269861347674093
567.0,11.030459705518712,5.706063841744408
568.0,10.682251003651476,5.307510238253747
569.0,8.886286792148317,5.096900280417196
570.0,9.111514757207125,5.472132280255805
571.0,10.869850612277835,5.129132623212088
572.0,11.432102725493756,4.607711472896367
573.0,10.595869394177813,5.1518292682926825
574.0,8.701966955153424,4.431156569630213
575.0,8.207710464201416,4.3147128245476
576.0,7.07741935483871,4.9322580645161285
577.0,8.898308418568057,4.224527930763179
578.0,8.684480723839496,4.48808025177026
579.0,8.528933910306844,4.36420141620771
580.0,8.848741148701809,4.384520062942565
581.0,8.518725413060583,4.864437450826121
582.0,8.35684500393391,4.994531864673485
583.0,8.752460711331679,5.159615384615384
584.0,7.545181968569066,4.937468982630273
585.0,14.187175956747161,6.18690915693276
586.0,16.10180001613912,7.073253949040731
587.0,16.18808529524501,5.97247473219149
588.0,15.802045633359558,5.83375295043273
589.0,35.69394177812745,6.730920535011801
590.0,47.767112509834774,6.129819040125884
591.0,39.63571990558616,6.135326514555468
592.0,27.18804091266719,6.136113296616837
593.0,19.453973249409913,6.8284815106215575
594.0,16.043273013375295,7.132179386309993
595.0,15.506425386834513,5.810872578771871
596.0,15.308680828743771,6.0281742909595
597.0,15.472593758195647,5.59709265295418
598.0,12.71938106477839,6.21554081900266
599.0,15.425386834513505,6.034206286763329
600.0,12.736428009441383,6.229740361919749
601.0,15.247012101457418,5.840582968041662
602.0,11.100768049155144,5.817144355775355
603.0,9.656206211831702,5.189846764827095
604.0,11.376490202690045,5.351335656213704
605.0,7.935924094263983,5.398799220711101
606.0,10.2374704956727,5.656235247836349
607.0,16.87317073170732,5.560778914240755
608.0,75.4264681555004,5.7230148883374685
609.0,49.60967388892251,5.1893890334684984
610.0,34.25324324246433,5.001011721035324
611.0,45.10746347803783,4.482449212209243
612.0,69.42085923517865,6.429415850344253
613.0,235.4515379716009,9.75267318571803
614.0,184.19893971750778,7.5362893859353335
615.0,99.78296804166199,5.074924131729796
616.0,53.926810535386466,4.988681578060021
617.0,30.196892210857595,5.41876475216365
618.0,12.762883556254916,4.478520849724626
619.0,8.635365853658538,4.4071203776553896
620.0,10.57653422501967,4.035975609756098
621.0,9.870121951219513,4.197423288749016
622.0,9.781431943351691,5.048308418568057
623.0,82.2643769291291,5.8503157215194985
624.0,173.59127579737333,9.92948516209728
625.0,187.18580312291954,7.473869252960519
626.0,183.92725255992366,6.099549833853532
627.0,131.62324609563004,5.76874573105887
628.0,77.68164549848262,6.7477782773219435
629.0,42.0111610655277,5.607563410887565
630.0,21.926548274699336,4.891281705443783
631.0,13.593765688808961,3.9954104379753472
632.0,11.617159342100333,4.142021655239594
633.0,10.523249409913454,3.9340676632572777
634.0,174.9654012588513,3.992604248623131
635.0,345.8994633022367,13.111355887752426
636.0,240.69929002285414,21.570923719605858
637.0,170.2369337979094,21.456103180847478
638.0,118.83736090817129,15.0038964444944
639.0,90.07367652017534,30.372522573151997
640.0,99.23271889400922,20.463864223895694
641.0,62.10522273425499,12.2311640627927
642.0,41.02688172043011,8.053370049829532
643.0,29.890562361844815,5.112210108276198
644.0,57.654565209246556,5.313776179236447
645.0,68.33515042523698,4.822505713536398
646.0,57.69806676407778,4.346967142482485
647.0,52.18001573564122,7.238552321007081
648.0,69.06711250983477,7.929504327301338
649.0,54.828284815106215,9.507789142407553
650.0,60.27354445318646,12.229110936270652
651.0,148.7136900078678,12.610267505900865
652.0,80.63338016559888,10.507149413660034
653.0,45.61169776329099,8.447948746768574
654.0,42.786282829418155,6.554273912554794
655.0,67.82257689858005,5.170282117567719
656.0,51.150076804915514,4.122119815668203
657.0,33.23616949533551,4.744558090742197
658.0,19.016149638454912,4.156485332134427
659.0,14.847168521224383,5.170408564684725
660.0,10.269758532838784,4.6461307182196245
661.0,7.83447604061294,4.771855681690457
662.0,8.122588138323778,6.001034056423514
663.0,7.979862125810198,5.057637405867146
664.0,9.222265932336743,5.178127458693941
665.0,17.64371381306865,5.354673283705542
666.0,14.117490266093727,5.557411386148601
667.0,12.244573221166455,4.979266275293026
668.0,9.235996288002582,5.726729911840062
669.0,8.642191692388387,5.874252052694224
670.0,7.2644374508261205,6.203461841070023
671.0,10.437490165224233,5.992761605035405
672.0,13.952419354838707,6.04594807238395
673.0,19.350216365066874,4.694728560188828
674.0,16.039732494099134,5.548780487804878
675.0,11.527930763178599,5.489378442171519
676.0,11.651455546813533,5.143981117230527
677.0,9.563335955940204,4.526357199055861
678.0,10.547600314712824,4.95200629425649
679.0,9.303068450039339,4.966483084185681
680.0,9.048615638230114,5.405874639391555
681.0,130.2431905885879,5.425045895620246
682.0,135.8993293619572,6.274206661421453
683.0,85.21536098310293,6.76747311827957
684.0,55.98509984639018,7.354301075268817
685.0,40.18709677419355,6.047580645161291
686.0,21.358870967741936,5.891129032258064
687.0,13.844354838709677,5.193548387096774
688.0,10.845535011801731,5.023524783634933
689.0,10.61656550897306,5.408190963246038
690.0,10.226024689970401,5.18191806226818
691.0,11.595673635307781,6.666362256940541
692.0,13.255498107976472,5.94326177363156
693.0,18.04144511402576,7.246177478435543
694.0,16.754900744416872,6.4705541770057895
695.0,17.11180324396296,6.780930117613831
696.0,17.10984536706409,7.036777017894249
697.0,12.067993100526538,6.54388024773548
698.0,9.537627852084972,5.489929189614476
699.0,41.418568056648304,4.654602675059008
700.0,83.06341463414634,4.562391817466562
701.0,50.76758457907159,3.647049567269866
702.0,29.609598741148698,3.614634146341463
703.0,20.374350904799368,4.495043273013375
704.0,16.479307631785993,6.081746656176239
705.0,27.366266719118805,6.309421715184893
706.0,26.339535798583793,7.980094413847365
707.0,25.052481173429246,6.032421040800269
708.0,17.29035348994043,6.45250084298078
709.0,13.775221984938742,5.773240980105654
710.0,20.378228616387545,5.438361245363605
711.0,16.645054512757106,5.550415870518152
712.0,13.771836012138923,6.125822374583192
713.0,12.998763628189277,5.4351654115619485
714.0,11.971451050916038,6.826158630249896
715.0,10.566370686748343,6.263197332434153
716.0,9.345284927503652,6.995354239256678
717.0,13.692817803754075,7.1297066426885465
718.0,12.403506800044958,6.470757933385785
719.0,10.066426885467012,6.515866771570941
720.0,12.411734292458132,5.514660372410175
721.0,10.949645948072384,6.182061369000786
722.0,8.890479937057435,7.799999999999999
723.0,8.936428009441386,7.471282454760031
724.0,20.12258064516129,7.758064516129032
725.0,16.651612903225804,8.076612903225808
726.0,14.805645161290322,6.469354838709678
727.0,10.951612903225806,7.612903225806452
728.0,10.679956726986624,7.116011014948859
729.0,12.408123524783635,6.564457120377655
730.0,14.475413060582218,6.371420141620771
731.0,32.023996852871754,5.738532651455547
732.0,32.5426435877262,6.624508261211644
733.0,34.45251770259638,6.6762195121951216
734.0,25.07179386309992,6.450196695515341
735.0,28.307617736315613,7.708107601813345
736.0,64.46953467460942,8.479899591622644
737.0,46.63199393053838,7.2023612828294175
738.0,59.69744857817241,6.163680641414709
739.0,59.75100595706418,5.936364317560226
740.0,52.75499606608969,6.037844217151848
741.0,134.76782061369,6.1879228953579855
742.0,100.15141620771045,6.396479150275373
743.0,61.29537765538946,5.506589299763965
744.0,37.47246262785208,5.417840283241542
745.0,25.050747442958297,5.4214201416207715
746.0,13.859323367427223,5.905271439811173
747.0,16.880881195908735,5.414476789929189
748.0,15.39014274474542,5.3483159117305465
749.0,13.129768461279083,5.319712637218538
750.0,10.687759919073844,7.154171818215879
751.0,54.607995204376,6.238994417593945
752.0,68.35411561949721,6.8069873740212055
753.0,147.54533737964107,5.309407665505226
754.0,207.23490315087486,5.301045296167247
755.0,155.3035442658574,5.530369787568843
756.0,81.4073732718894,5.435663706867484
757.0,48.639016897081405,4.554006968641115
758.0,31.903225806451612,4.807725450526394
759.0,17.314319433516914,4.307481922745494
760.0,14.16522423288749,6.114570454460305
761.0,29.342800944138475,6.222745494736053
762.0,16.95073994979581,5.127732194372635
763.0,11.65002435277809,3.9667078790603574
764.0,13.071274961597542,4.992165898617511
765.0,13.254838709677419,4.9887096774193544
766.0,18.571774193548386,5.876612903225807
767.0,16.44435483870968,7.24758064516129
768.0,35.614400921658984,6.588172043010752
769.0,27.709098572552545,6.1815958562811435
770.0,38.60842793450976,8.108789479599865
771.0,142.40236502941067,7.193360121389233
772.0,86.92461878535836,8.369506575250085
773.0,50.94033137070116,8.166763213183355
774.0,103.4036826011649,7.011391047976414
775.0,102.13440658476063,5.46245435655349
776.0,52.72570241193372,4.473050264710374
777.0,38.33964113515648,5.2805849277918515
778.0,24.612500468322654,4.900011239743733
779.0,15.370609006781311,5.1039788692817805
780.0,12.084901277584205,4.498763628189277
781.0,10.670023603461841,4.295003933910307
782.0,15.719354838709677,4.318548387096774
783.0,16.92016129032258,5.05241935483871
784.0,14.107258064516127,5.240322580645161
785.0,11.599409913453972,6.094630212431156
786.0,8.611302498969689,6.729669176876101
787.0,9.59476415271065,5.655157169083211
788.0,9.643494566016201,5.778674531605295
789.0,9.750828714951453,6.07485064109769
790.0,14.38288878705873,6.716024848479608
791.0,43.53005103996449,5.34316659605802
792.0,41.64272024854243,6.03445701950816
793.0,32.359821662732756,5.723951893896819
794.0,29.527668502491476,5.9823536023378665
795.0,45.66902701285077,5.818478138698437
796.0,32.84196920310217,6.272114195796336
797.0,23.560825746506314,5.75677194559964
798.0,19.68547450451463,5.00640665392829
799.0,18.043760068937097,4.668427559851636
800.0,120.022086096437,4.269810048330898
801.0,161.4630399760219,3.785058633996478
802.0,96.88881645498483,4.91695328013188
803.0,53.90207935259076,3.8989172380203065
804.0,103.55898617511521,4.498003072196621
805.0,81.5189708141321,4.6759600614439325
806.0,41.69435483870968,3.986290322580645
807.0,23.921774193548387,4.476612903225806
808.0,14.788709677419355,4.849193548387097
809.0,10.70712037765539,4.495377655389458
810.0,9.450963808025175,4.6623918174665615
811.0,10.173564122738,5.790165224232887
812.0,12.484362706530291,4.930566483084185
813.0,10.87081038552321,5.4918961447679
814.0,9.849030644152595,5.709282010934253
815.0,9.293044039621538,6.325136678165789
816.0,9.47870140612076,6.1624896608767585
817.0,9.86737981399665,5.734234602271581
818.0,9.015849623756782,5.224699913252234
819.0,18.65238001573564,4.947226593233674
820.0,21.39110936270653,5.769177812745869
821.0,14.454130605822186,5.166640440597954
822.0,11.111093627065301,5.737057435090479
823.0,8.933044846577497,5.424075531077891
824.0,8.071636506687646,5.565145554681353
825.0,6.828560188827694,6.456766325727774
826.0,9.869272125723738,6.515488006617039
827.0,14.988668320926386,5.492018196856906
828.0,19.216914805624484,5.025041356492969
829.0,14.441718614456615,5.442231535838932
830.0,19.848652383546167,5.334677923702314
831.0,25.11453579858379,4.979287962234461
832.0,23.151565134314936,5.181637068674833
833.0,22.880371660859467,5.159117305458769
834.0,24.037353415008802,4.436364317560226
835.0,21.27994455059758,5.143568993293619
836.0,30.665542692293283,5.064310067063804
837.0,30.18609269041999,5.643231800981604
838.0,24.496909070473194,5.470757933385785
839.0,15.651680341688209,5.317991083136638
840.0,50.87883556254917,7.575137686860739
841.0,65.60964370012363,6.324828593908059
842.0,84.35832303023491,5.756434753287625
843.0,47.69877486793301,5.201453673522911
844.0,29.068112847027088,4.796635570042337
845.0,17.4970776666292,3.7901352515829303
846.0,12.798134202540181,4.179910831366378
847.0,9.831246487580083,3.8251245738263835
848.0,10.08371361132966,3.87663257277734
849.0,14.945869394177812,4.183398898505114
850.0,12.499291896144769,3.5791109362706526
851.0,13.137004982953055,3.555134761645383
852.0,23.2620508785733,5.656196413080757
853.0,17.97209546289011,4.904416066493171
854.0,12.284238132703909,4.947880731909056
855.0,9.921033307107264,4.213515503641389
856.0,8.856530291109362,3.9123721479150273
857.0,8.572619984264358,3.588040912667191
858.0,51.10228166797797,5.211014948859166
859.0,89.41243115656962,4.912352478363493
860.0,55.31856805664831,5.303540519276161
861.0,33.633870967741935,5.04516129032258
862.0,21.26451612903226,3.912903225806452
863.0,62.55768049155146,10.216244239631337
864.0,76.2348001198906,11.65508317410363
865.0,42.57454291708815,8.45263759319621
866.0,28.490094039189238,11.465834925630363
867.0,19.950960998089244,11.206366594328829
868.0,16.187302836162,7.0537003253761705
869.0,80.29081900266007,5.487668416031909
870.0,130.44725281930238,4.891222840888458
871.0,78.10980854969841,7.831459178115355
872.0,47.35137124873553,7.0735341500880455
873.0,30.778117155595517,7.341944850324079
874.0,17.412695290547376,5.5325699674047435
875.0,15.421827582331122,4.358210632797572
876.0,17.875351241991684,4.395470383275262
877.0,13.227537372147914,4.145277434341164
878.0,20.508433554381625,4.167633284627778
879.0,20.189850511408338,4.30204563335956
880.0,21.802879247686484,4.409387059308381
881.0,21.58594001723427,4.194465362856393
882.0,15.245438537334682,3.5815068749765837
883.0,12.174882919336106,3.269903712862013
884.0,10.856599602862389,3.2669738863287248
885.0,19.07671125098348,3.436978756884343
886.0,21.82701097748305,9.973481697950621
887.0,24.780932711400844,9.74716571128845
888.0,18.01506312989397,7.173582855644224
889.0,11.893821887527631,6.643243040725338
890.0,8.85060881945225,5.095264321306807
891.0,9.720849724626278,4.377970102281668
892.0,10.358064516129033,4.916129032258064
893.0,15.29449958643507,4.938854425144748
894.0,30.764991728701407,4.2174110835401155
895.0,21.07160876757651,5.8191894127378
896.0,16.425645060420827,4.6066639431903
897.0,25.514281823605188,4.4499717565413865
898.0,23.18597748304672,4.788755573039602
899.0,15.306295193136261,5.523813270390768
900.0,10.478550822374583,4.695777602937319
901.0,12.520628676332844,5.518620508785733
902.0,10.746105428796223,5.43780487804878
903.0,8.185483870967742,4.016935483870968
904.0,8.444354838709678,4.037903225806452
905.0,6.5829858379228945,4.485129819040126
906.0,7.111526357199056,4.445456333595594
907.0,7.880015735641227,4.566424075531078
908.0,6.370653029110937,5.285228166797797
909.0,8.580487804878048,5.750275373721479
910.0,6.226435877261998,4.847678992918961
911.0,6.676868607395751,4.558300550747443
912.0,8.282258064516128,4.887096774193548
913.0,7.765322580645162,4.361290322580645
914.0,6.238709677419355,5.036290322580645
915.0,6.782651455546814,4.896203776553895
916.0,7.998583792289536,5.101730920535012
917.0,42.25332415420928,5.499252557041699
918.0,24.208418568056643,6.010090479937057
919.0,15.558675785269017,6.260928201093426
920.0,10.772256854082187,6.113154895196595
921.0,10.651285581714376,5.55214196372733
922.0,7.650023199983861,6.269039117190179
923.0,6.860574149165808,5.688728842623414
924.0,9.26164336581331,6.579228953579859
925.0,34.55725756016865,6.5677419354838715
926.0,155.98595594020458,7.5966168371361125
927.0,132.47920928402831,7.059913453973248
928.0,112.01566070960249,5.855494361395227
929.0,153.7985463264771,12.803042223970628
930.0,305.1837698100483,11.580270503165861
931.0,275.6129781574313,10.691244239631336
932.0,226.68099733992733,9.860777040950133
933.0,171.05286426136152,7.165411561949721
934.0,92.69913079315126,5.712524821100745
935.0,283.5545689558278,6.946049230077554
936.0,240.00339065602634,5.996927803379416
937.0,134.93344198418941,5.661309055486869
938.0,75.28638867033831,5.704169944925256
939.0,209.47128245476003,6.376081825334381
940.0,430.54429583005503,11.2228166797797
941.0,403.746408901877,8.50150237907909
942.0,433.44101757146603,6.276696264658499
943.0,300.59657187816117,5.0125004683226555
944.0,202.4799539170507,9.800192012288786
945.0,230.12304147465437,8.025499231950844
946.0,170.62971788243226,6.903293244914016
947.0,474.3835993406017,21.30817504027575
948.0,391.0773603461841,19.031353265145555
949.0,311.25365853658536,15.817663257277735
950.0,163.42064022103085,10.815939655645618
951.0,194.35469461877665,7.303721204691415
952.0,130.38366451368938,7.724652461024664
953.0,69.52650967619952,7.54700364986717
954.0,34.76836892149866,6.162880267105104
955.0,20.60458956202465,5.529227080289236
956.0,9.238172043010751,4.857296466973887
957.0,23.915047206923685,4.159559402045634
958.0,19.34970870330823,6.54010996215953
959.0,15.544574013712488,5.450143306732607
960.0,10.904026638192649,4.710152298527594
961.0,9.49012775842044,4.2293657037952865
962.0,26.76945412311266,4.750009366453112
963.0,73.67927391255479,3.8661721179423774
964.0,87.97058933722977,4.074407103518039
965.0,91.27966355700423,4.263796785433293
966.0,53.60559739237945,3.883968378854296
967.0,46.32404181184668,3.141826833014874
968.0,44.39541418455659,3.282229965156794
969.0,34.84421715184894,3.221085759244689
970.0,21.566797797010228,3.422816679779701
971.0,16.54335169158143,3.1128245476003147
972.0,37.42014162077105,3.348544453186467
973.0,119.64025326889214,4.33501929489341
974.0,78.19463489565771,4.621089505825934
975.0,53.53287812371211,4.389922633097299
976.0,39.997890674759276,5.0249728372859765
977.0,27.117455322018657,4.925274437076168
978.0,15.724011839196733,4.313251657862201
979.0,12.177112135176651,4.36221198156682
980.0,8.728725038402459,5.972350230414746
981.0,7.957910906298002,5.0124423963133635
982.0,8.411290322580644,4.751612903225806
983.0,7.845161290322581,4.921774193548387
984.0,22.866129032258065,4.353324154209284
985.0,47.08766719118804,4.624154209284028
986.0,33.19841382719038,5.038338477677581
987.0,25.61727339667938,4.246745950089774
988.0,19.323831426899876,4.29526518590248
989.0,26.429196819440723,4.470288169737422
990.0,20.997446560782514,4.496355729243219
991.0,18.954389119928067,4.948012438649732
992.0,21.96499943801281,4.482267430969241
993.0,25.807440710351802,6.041684462927579
994.0,23.262745869394173,5.250039339103068
995.0,14.488729346970887,4.745397324940991
996.0,24.629560526020004,5.812483608707055
997.0,28.677491476527663,5.47152598254093
998.0,20.15285864148964,4.756730733205949
999.0,14.65786126409651,4.207240268255218
1000.0,16.152605747255627,4.062721516616087
1001.0,66.2750496422015,4.048604398486381
1002.0,55.436689333483194,3.603804653253906
1003.0,37.999393053838375,3.515612004046308
1004.0,27.305361357761043,4.065044396987748
1005.0,23.450683751077143,3.959941553332584
1006.0,15.440920160353677,4.98508486006519
1007.0,10.452403431868419,4.582550297853208
1008.0,18.35590273875089,5.055456895582781
1009.0,20.603915177400623,5.434416095313027
1010.0,20.52899291896145,5.609834775767112
1011.0,25.27810778914241,6.554091266719119
1012.0,20.51848937844217,6.229464988198268
1013.0,22.33910306845004,5.569492525570417
1014.0,17.765676632572777,4.756117230527144
1015.0,12.594315499606608,4.337647521636507
1016.0,9.88865066876475,4.478245476003147
1017.0,9.210857592446892,5.654445318646735
1018.0,11.685759244689221,5.005822187254131
1019.0,11.713010147471202,4.132356916621275
1020.0,14.378534971453934,3.6637394339203935
1021.0,19.990005562232156,4.115392252646384
1022.0,18.665832836190823,3.7104105244349146
1023.0,22.97041641809541,4.313673004152942
1024.0,19.927226405904612,4.916803416882095
1025.0,11.706256790678506,4.974216027874564
1026.0,10.416876475216366,4.86498819826908
1027.0,8.649193548387098,4.441935483870967
1028.0,7.800806451612903,4.129032258064516
1029.0,48.35763178599528,4.783851298190402
1030.0,61.75556648308418,4.539850511408339
1031.0,41.096734854445316,4.102989771833203
1032.0,31.787077104642012,4.466915814319433
1033.0,109.65768985800456,5.8334195047019595
1034.0,164.0463901689708,4.893499681540594
1035.0,146.98700310966242,4.919999250683751
1036.0,171.01262597879435,6.750552620733581
1037.0,198.25926342212733,8.031059158517852
1038.0,119.35854782510958,7.5769360458581545
1039.0,67.25008429807801,6.078003821512869
1040.0,36.31945599640328,5.940182083848488
1041.0,18.818253343823763,6.537372147915027
1042.0,9.525177025963808,5.852478363493312
1043.0,7.878245476003148,4.926239181746656
1044.0,6.471931549960662,5.61536191974823
1045.0,7.887175452399685,5.5145357985837915
1046.0,7.633910306845003,5.144767899291896
1047.0,8.580291109362706,6.732179386309992
1048.0,7.963709677419354,5.9322580645161285
1049.0,7.47966168371361,4.615125885129819
1050.0,6.7747246262785215,4.372698662470496
1051.0,7.345830055074744,4.508123524783635
1052.0,7.404366640440598,4.379464988198269
1053.0,7.328878936432044,4.476374346870019
1054.0,10.855548830922551,4.596409045976316
1055.0,17.125481507739572,5.045066761195793
1056.0,13.154215408247666,5.028178541888219
1057.0,9.665807546767422,4.684280065593992
1058.0,10.053394402607621,5.050173279382563
1059.0,7.0952455884005845,5.172264059046121
1060.0,7.018455659210971,3.8955153422501967
1061.0,10.084343036978758,3.996144767899292
1062.0,6.754602675059008,4.3953973249409914
1063.0,5.176709377692855,4.55622775467386
1064.0,6.393842493724476,4.773678393465962
1065.0,6.299596305870892,4.2188612266306995
1066.0,12.846877224532612,3.4024577572964674
1067.0,278.8571128844929,6.643479075343748
1068.0,250.50689745607133,5.96114045933086
1069.0,211.48948334644638,8.501813345322393
1070.0,214.8311303435615,11.469710763927916
1071.0,745.5833857854707,16.95688527968229
1072.0,498.83498557566213,20.016316361320296
1073.0,354.95819939305375,15.96937169832528
1074.0,241.54541418455656,11.139887977220786
1075.0,129.60024165449028,7.603661346521299
1076.0,171.8406204338541,6.760593458469147
1077.0,110.52026900453338,5.067063804278597
1078.0,58.32964295080739,4.556573376793676
1079.0,39.02311640627927,4.152710651530478
1080.0,23.11063654415346,3.676969765089356
1081.0,10.760983102918587,3.6834101382488478
1082.0,9.254531490015362,4.6678955453149
1083.0,15.490187703720355,4.3922820426360945
1084.0,230.3764302573901,6.951517365404069
1085.0,193.82262373084558,7.847494473792664
1086.0,725.7890768423813,9.36823648420816
1087.0,563.1354423971846,8.662812915772495
1088.0,363.2864466116529,7.2388097024256055
1089.0,243.49153359768513,6.123245096988533
1090.0,160.77149644553995,5.897260029293037
1091.0,71.53291894402172,5.66931018468903
1092.0,36.60718751116351,4.821169578108812
1093.0,67.9664201764727,5.008895080913085
1094.0,83.7096416961383,5.75833244025292
1095.0,63.74815132354517,5.774979459150502
1096.0,39.74540063587325,6.446861715428857
1097.0,113.00864501839746,5.7994677240738755
1098.0,116.9209985423185,8.354578191586224
1099.0,83.86688135448496,8.957356063754613
1100.0,74.03456595856281,11.675602262935072
1101.0,69.8667453448728,11.179967030085047
1102.0,45.41128679382389,9.660456490429226
1103.0,26.506980926416272,10.309378520588336
1104.0,15.854041210651094,8.060118056517613
1105.0,11.43024641177716,7.079655802452355
1106.0,12.078410456272605,5.851655858215425
1107.0,10.019986137649395,5.917397250009366
1108.0,9.967891079912835,4.522501161004537
1109.0,9.206732715408817,5.413522413704472
1110.0,8.861834099639893,7.223696690723203
1111.0,10.935218125088763,6.863307638756379
1112.0,9.557470813696455,6.553773635046392
1113.0,7.739547038327526,6.061207897793264
1114.0,7.536177925143306,5.962940691618898
1115.0,10.624137349668429,5.611309055486869
1116.0,8.112337492038515,6.892098460155108
1117.0,172.37874939118055,9.502116818403206
1118.0,179.17939005657337,7.857433217189315
1119.0,164.58566963169363,9.787397742292715
1120.0,90.90992390954881,6.74863358696817
1121.0,78.22109098703247,5.860875933269031
1122.0,39.31970492623155,5.126638802557782
1123.0,22.76436966384453,5.812310220412245
1124.0,16.323597014236135,5.917590895981835
1125.0,20.182459029391495,5.762635693766647
1126.0,15.346015772235742,5.694878597698205
1127.0,13.101965125427698,6.076021444385486
1128.0,17.227576711250983,4.907553107789143
1129.0,15.297108575924469,4.682730133752949
1130.0,14.527852084972462,4.845082612116444
1131.0,14.231986437375895,4.126224195421678
1132.0,12.039340976359071,4.603474017459068
1133.0,13.051535666012457,4.648645610880072
1134.0,9.600118737805598,4.599932561537597
1135.0,8.998879195810744,4.967314825221985
1136.0,6.856198430470656,6.078258589037503
1137.0,6.994975690451692,5.3735116706005766
1138.0,7.796164437450826,6.172777340676633
1139.0,7.055684500393391,5.329287962234462
1140.0,7.841148701809598,4.527143981117231
1141.0,9.927604954709597,7.601928624745304
1142.0,19.298971635497992,8.018116161310495
1143.0,22.116248490560054,9.956139493865694
1144.0,23.515375753278978,10.066976119867544
1145.0,28.134704005671747,7.983353651331621
1146.0,24.803941403469334,7.371248735528829
1147.0,16.878161177925143,7.655932711400847
1148.0,12.264426211082387,6.361222884118242
1149.0,25.88106103180848,5.280457832228092
1150.0,31.055400696864112,6.096103555505601
1151.0,27.08121067723377,6.682051741158286
1152.0,20.477241283317344,6.78879852802922
1153.0,17.231864150706667,5.3360692089398665
1154.0,74.5794497404839,6.247143667449963
1155.0,45.64944162869985,5.386829111459049
1156.0,29.138674302722023,5.973234510718271
1157.0,20.98369967056224,5.897907577939781
1158.0,24.180096809916762,5.6014396456256925
1159.0,15.661861000964526,5.414775122352016
1160.0,15.518409822235778,6.524012871349705
1161.0,15.176084130922842,6.020371026822639
1162.0,12.709701051636534,4.6318444995864345
1163.0,9.378199220134704,4.85040765685927
1164.0,8.28019023986766,4.352853598014888
1165.0,5.716463414634146,4.270416994492526
1166.0,21.37680959874115,5.217997639653817
1167.0,32.03564122738001,5.601789929189614
1168.0,49.91282829418155,5.189086208834438
1169.0,52.09520062942565,7.287400247274362
1170.0,51.440635420179085,7.506874976583867
1171.0,64.6960555469878,5.682810075341134
1172.0,77.55255534662886,5.1391662850777635
1173.0,74.18679994673994,5.748922620265455
1174.0,61.09523147520147,5.902022458661619
1175.0,44.165204063253576,4.841026590313912
1176.0,27.517260696292954,5.234541802283738
1177.0,62.58304383788255,5.587652132813423
1178.0,107.17109181141439,5.711414392059552
1179.0,96.18828725038402,5.066743471582181
1180.0,85.57922427035331,4.977380952380952
1181.0,55.20172811059908,4.045468509984639
1182.0,52.66759300887939,4.596337716833389
1183.0,50.12663444606796,4.034843205574912
1184.0,69.34826345959313,4.661046794799745
1185.0,55.15406421291734,5.456983583875063
1186.0,130.57648732740677,5.869830698092642
1187.0,194.98731825813599,6.378398170971314
1188.0,139.75996271795222,6.897375317855438
1189.0,76.22022713470575,6.227105477668118
1190.0,55.409465844446544,4.926856674574092
1191.0,42.84541094887279,4.4773246685127095
1192.0,48.11471776322288,4.524760644548214
1193.0,27.595294293956762,5.518433179723502
1194.0,17.344086021505376,5.086733355812821
1195.0,12.415552058746393,5.404106253044096
1196.0,9.652092465625117,4.872560038964445
1197.0,12.773818890262636,5.187816117792514
1198.0,44.339702521449176,5.560076430257389
1199.0,52.51564197669626,5.2473867595818815
1200.0,78.45876512682177,4.416297628414072
1201.0,55.078629500580725,4.756667041324791
1202.0,48.80928402832416,5.180330448465774
1203.0,31.238424937244762,4.411228503990109
1204.0,22.78679704769398,4.6312633471956834
1205.0,13.284796373309355,5.19378067513394
1206.0,8.497236896332096,5.196418268330149
1207.0,52.003240792776595,5.743134389869244
1208.0,47.5667453448728,5.79513693754449
1209.0,29.68541830579596,5.122981529354464
1210.0,18.66011014948859,4.345397324940992
1211.0,14.32966168371361,5.575924468922109
1212.0,9.387246637443333,4.259825409314001
1213.0,11.388745269941179,5.548874152335993
1214.0,9.66790303847739,4.86527293844367
1215.0,7.730568356374809,5.793376044359523
1216.0,7.035779850886066,5.858686448615638
1217.0,18.09792064740924,6.080188078378479
1218.0,12.695695178149938,6.253705368850924
1219.0,10.271164437450826,6.067918961447679
1220.0,10.731235247836349,5.6839889850511405
1221.0,9.230863399647822,5.338960698362744
1222.0,6.355850286613465,5.014948859166011
1223.0,6.178711925368102,5.61369000786782
1224.0,6.240103405642351,5.383792289535799
1225.0,6.787400247274363,5.650904799370574
1226.0,15.767356037615675,5.1284477913903554
1227.0,13.430913041849312,4.146789179873365
1228.0,10.482569030759432,4.465605447529129
1229.0,8.97836162002173,4.818099733992732
1230.0,7.232306770072309,4.7962234461054285
1231.0,6.555861526357199,6.600108650856094
1232.0,9.535161664980706,5.803679142782212
1233.0,7.325765239219212,5.724101757146603
1234.0,7.394983327713462,5.9761342774718065
1235.0,5.401562324379004,5.065332883743584
1236.0,6.222516953280132,5.082896856618335
1237.0,6.191341650743697,4.882480986100184
1238.0,7.2794593683264015,5.082318009816043
1239.0,7.7113268517477795,4.656815967929265
1240.0,8.457679554906148,5.086875725900116
1241.0,7.048656850623805,5.015035030534637
1242.0,9.744374508261211,5.941542092840283
1243.0,8.930802517702595,5.214280094413846
1244.0,8.819809111685586,4.934216589861752
1245.0,13.799823910681503,5.32073732718894
1246.0,12.175993780675135,5.057929639204225
1247.0,14.603165861151698,5.442328874901651
1248.0,16.577035330261136,5.590322580645161
1249.0,13.083045783222808,5.036562886366191
1250.0,9.766119665804954,5.290862088344386
1251.0,12.37123187591323,5.627919523434866
1252.0,15.115545502229214,5.526728110599079
1253.0,18.02879809673673,5.1537634408602155
1254.0,13.038377168333895,5.8224701210145735
1255.0,9.921303060956877,5.817785021168184
1256.0,7.679704769397924,5.293207448203514
1257.0,7.603896444494399,5.320167846839759
1258.0,10.313693754449066,5.226098684949983
1259.0,18.470810385523208,5.631313926042486
1260.0,11.34991944850324,5.917114383125398
1261.0,8.802174890412498,5.351105241467161
1262.0,7.655119703270765,4.95055262073358
1263.0,8.129684163201079,5.47653516166498
1264.0,7.8511520737327185,6.485867895545315
1265.0,7.365745007680491,6.61405529953917
1266.0,7.337096774193548,5.952419354838709
1267.0,8.19516129032258,5.508870967741935
1268.0,9.029622344610543,6.145082612116443
1269.0,8.751573564122737,6.439398111723053
1270.0,6.537077104642014,7.08542486231314
1271.0,11.53514948859166,6.18933910306845
1272.0,17.648623131392604,7.309992132179386
1273.0,12.860977627145996,8.641146684419699
1274.0,8.698388105469144,7.081784986584356
1275.0,10.018588230547316,6.538650164417277
1276.0,9.63823270880706,6.551086724709856
1277.0,9.717896842208408,5.5960292002778225
1278.0,8.018170919036379,7.245243715109962
1279.0,7.2758832565284175,6.4490577348169795
1280.0,6.865006931175302,6.546322730508411
1281.0,6.402242328874902,5.7872934697088905
1282.0,6.686959087332808,6.014417781274586
1283.0,6.840656963021242,5.740676632572777
1284.0,4.812667191188041,4.650177025963808
1285.0,7.43659473230677,6.4578650106777555
1286.0,8.341409089206099,5.035354613914802
1287.0,9.875975984414222,4.650014049679667
1288.0,9.05774605672324,4.480248960323705
1289.0,11.72049379940804,5.064426211082386
1290.0,10.996191600164849,6.16009328987299
1291.0,34.49298171668352,5.3373243790041585
1292.0,27.067708216252665,5.056661421452924
1293.0,17.943531527481174,5.542040388145816
1294.0,18.237304709452623,4.846157880933648
1295.0,15.889408414821474,6.573073320594956
1296.0,9.963036229440636,6.620604323554756
1297.0,8.694728560188828,6.975432730133752
1298.0,6.747364280094414,6.565538945712038
1299.0,6.122226593233675,6.557041699449252
1300.0,8.005645161290323,6.964516129032258
1301.0,18.12941628264209,6.103917050691244
1302.0,14.395122887864822,5.613978494623655
1303.0,18.743932411674347,5.933602150537634
1304.0,15.225192012288787,7.210752688172043
1305.0,12.264208909370199,6.556989247311828
1306.0,9.225160166348207,4.791982316136525
1307.0,8.890613877336929,5.323026488329399
1308.0,7.7452577647896295,6.274318122213479
1309.0,9.162744932748867,5.481209021767636
1310.0,8.792259563148626,6.180120639916076
1311.0,7.253328837435839,5.982035142932075
1312.0,6.674744295830054,6.045318646734854
1313.0,7.468056648308418,6.687254130605822
1314.0,5.47258064516129,5.808064516129032
1315.0,6.149960660896931,4.870653029110937
1316.0,5.846754523996853,4.472423288749017
1317.0,7.44376475216365,5.712962234461054
1318.0,9.971597167584578,6.086880409126672
1319.0,15.998317785021168,6.93328275448653
1320.0,11.047939380315462,6.536271589674422
1321.0,10.646097935633733,6.260612191375371
1322.0,11.863174852946686,6.505601138960698
1323.0,9.652261061781124,6.109756097560975
1324.0,15.2948280624163,6.183651313525245
1325.0,17.632071781011454,7.399850833788586
1326.0,15.904155481379053,7.418650829954876
1327.0,30.40251047082328,6.256532338659578
1328.0,22.433590104843283,5.655071084844382
1329.0,14.969158143194335,7.409756097560975
1330.0,26.39213217938631,6.298898505114083
1331.0,36.686830766925176,7.478792476864861
1332.0,33.29542167771908,7.093054775017796
1333.0,37.14045277434341,8.071124161702446
1334.0,34.98433929039751,6.482739500206062
1335.0,33.56734479787194,6.7443295492862765
1336.0,23.77215166160878,5.54343973624068
1337.0,16.142566782810686,6.528997602188003
1338.0,16.481767262373083,5.688289123674647
1339.0,10.794915889251058,5.9372897231276465
1340.0,8.360207560600951,6.675864523622195
1341.0,7.186388670338316,6.161093627065302
1342.0,7.5235641227380015,6.006195908733281
1343.0,7.557395751376868,6.497993705743509
1344.0,9.458459780450339,5.1405867146229065
1345.0,8.93821887527631,5.6610093289873
1346.0,15.54240825014616,5.644750908981601
1347.0,19.036349679754434,7.548575297134388
1348.0,25.79624609985249,7.779308067434977
1349.0,26.929184386689005,6.2520482036885525
1350.0,19.850508794445997,7.230272724975668
1351.0,32.83785754801069,6.741167870364803
1352.0,24.74898384874964,6.983880552019539
1353.0,16.597302984282653,6.408453332845406
1354.0,13.506153367610196,5.33490933709037
1355.0,10.446074323458912,4.8715459352643045
1356.0,16.22513768686074,4.761054287962234
1357.0,23.085818253343824,4.830959874114869
1358.0,17.158366115919222,4.765787156719494
1359.0,13.94151586677157,6.228969502828669
1360.0,10.836080514030947,6.589887977220785
1361.0,9.219249934434828,5.644943988610393
1362.0,6.791292945187516,5.503510546626203
1363.0,6.010188827694728,5.356687647521636
1364.0,8.819099134539732,6.736644374508261
1365.0,8.607533438237608,5.683241542092841
1366.0,8.02560975609756,5.4219905586152635
1367.0,7.555546813532652,6.792446892210857
1368.0,6.4904405979543665,6.770495672698662
1369.0,7.451514555468135,6.678678206136899
1370.0,59.78579858379229,7.22891424075531
1371.0,48.90616218950208,6.923156682027649
1372.0,39.206808474766774,5.937158592784085
1373.0,33.488254467798136,6.129331984564085
1374.0,28.792514330673264,5.576074332171893
1375.0,19.030328575175155,6.006668914615413
1376.0,13.449102693791914,4.961859802929826
1377.0,8.754580195571542,5.520849724626278
1378.0,9.54065415308531,5.032467873065827
1379.0,9.034685849162639,5.027956989247312
1380.0,10.720107901539844,4.4371735791090625
1381.0,7.736135776104305,4.382237458319283
1382.0,9.325594769772582,5.06131842193998
1383.0,7.391023191337904,4.959691469034506
1384.0,6.234221273088307,5.572990895807576
1385.0,36.06542092840282,5.445712037765539
1386.0,49.376459293394774,5.504224270353303
1387.0,178.8624039938556,10.315284178187405
1388.0,403.8770615563298,8.956678281068525
1389.0,325.09620190326325,7.551450863586977
1390.0,477.54683226555767,8.62534187553857
1391.0,700.3311977820239,9.62404930500918
1392.0,437.5941703195833,8.517477801506125
1393.0,321.96320857217785,8.303473080813756
1394.0,242.85933835375218,13.123569742609867
1395.0,184.85681315799332,10.536607845341127
1396.0,316.07726574500765,9.176958525345622
1397.0,293.2718894009216,7.820046082949308
1398.0,166.65015360983105,6.311328725038402
1399.0,89.37222609223736,5.440838781123853
1400.0,46.548997070696245,4.93854535062337
1401.0,18.427006403168736,6.395354500646068
1402.0,8.39698077829562,6.428794480850177
1403.0,6.017538008195428,6.167546241961187
1404.0,5.497366153385036,6.035761117979844
1405.0,4.998111723052714,5.588119590873328
1406.0,4.973485444531864,5.47462627852085
1407.0,5.125767112509834,5.407258064516129
1408.0,5.605625491738788,6.7508064516129025
1409.0,8.213896766874646,6.917554388597149
1410.0,188.3787815856403,6.636589940167969
1411.0,363.86068448732385,7.285868309411847
1412.0,491.10897127592,18.885272864383342
1413.0,463.7923888637664,12.022878367675542
1414.0,288.6147240642913,8.0397212543554
1415.0,167.43776658450327,6.6306505197728
1416.0,81.90281320330081,4.989047261815454
1417.0,36.4850471546458,4.719024398956883
1418.0,14.415605796048315,5.6863217982195895
1419.0,8.627462614782615,4.815564518307276
1420.0,5.307654788261525,4.516559453452213
1421.0,5.427795886253794,4.524596305870892
1422.0,5.144103708854043,6.258833000933159
1423.0,5.184955080233474,4.835553400545257
1424.0,4.479652992516422,5.528240901688837
1425.0,4.812810367225953,5.0052494831024825
1426.0,11.880529888569702,5.526818289938339
1427.0,12.052793076317858,5.581589299763965
1428.0,8.295869394177812,5.037844217151848
1429.0,9.148817953617325,5.061817653890825
1430.0,10.018508111348396,5.026788055898992
1431.0,7.718931475029036,6.633771683338953
1432.0,6.347270615563298,4.609568768498745
1433.0,7.481166458862103,4.285306953916179
1434.0,21.822834311682136,5.497038339407468
1435.0,56.354693915797604,4.904826539229042
1436.0,85.96179611896956,5.4174014678836
1437.0,57.631360762268486,5.209206522409824
1438.0,44.89996931050944,5.895300935623516
1439.0,28.133533383345835,5.372878934019219
1440.0,19.428364233915623,5.274611510020362
1441.0,10.90154603110708,5.272238878534965
1442.0,10.919194379136194,5.3357826792533025
1443.0,19.681244935999477,3.9352005449767695
1444.0,23.90326312816478,4.069100647582157
1445.0,18.461800722225583,4.607662046843793
1446.0,20.39380171362862,4.282981298795618
1447.0,18.920993968004197,4.217468435053014
1448.0,142.09857723577235,5.565461204151212
1449.0,304.0488853920797,10.714585440785283
1450.0,378.34340414371883,48.31944850324079
1451.0,315.9351429320744,44.371705818440674
1452.0,239.6430706979881,34.517650144243376
1453.0,261.37035330261136,26.501228878648234
1454.0,204.83769435390207,27.72917462815181
1455.0,396.1140084672736,26.583942152785582
1456.0,336.7943314225769,20.91639503952643
1457.0,584.7006219324866,349.7352328500244
1458.0,350.15252044718494,518.5693722211041
1459.0,205.79676526274426,300.40967206087237
1460.0,467.4715393133998,211.49189440217197
1461.0,364.6124977672989,142.78434965884327
1462.0,273.3787732647448,77.48583574465046
1463.0,315.9020648019148,47.36594863001464
1464.0,457.1633979923552,27.20063944557568
1465.0,524.0287036044725,16.439413424784767
1466.0,539.6284071017753,17.081841889043687
1467.0,327.2411674347158,17.739220519415568
1468.0,211.7422845971233,14.105851138109202
1469.0,108.28550481776288,14.963831867057673
1470.0,53.02224549643905,11.60388213936601
1471.0,23.755131964809383,7.540189917609273
1472.0,20.355446166736492,6.459879905041195
1473.0,33.636265033157244,27.368395713911056
1474.0,37.68449196358323,19.02367558353003
1475.0,34.933701434940616,15.719383874714325
1476.0,24.06114795249335,10.400801768386348
1477.0,20.750927278858043,7.466299501704695
1478.0,12.724401483646174,5.226462103330711
1479.0,7.6750028099359335,4.565958562811435
1480.0,7.15862275673448,3.6719193735716162
1481.0,4.613592596755461,2.9126896706755088
1482.0,4.887441459668052,2.636068337641902
1483.0,4.487701847064553,2.692778464651006
1484.0,6.143378854295455,3.42184163201079
1485.0,14.067588325652842,5.047634033944026
1486.0,9.85813570117268,4.355520587463939
1487.0,8.501648495747629,3.9327526132404182
1488.0,14.51905792214604,4.0109081712936945
1489.0,12.237013957322082,4.735217776569578
1490.0,10.584345999391832,4.146257818810103
1491.0,8.766443352998529,4.239027526916573
1492.0,14.831423012547562,4.740115342424456
1493.0,15.240202907869824,4.688779337691566
1494.0,13.515761344517315,6.4741446685713235
1495.0,13.98073995850879,6.041469862239079
1496.0,11.548170143581192,5.039748613111466
1497.0,11.385780678619131,4.475567498146313
1498.0,8.947959463733529,3.4148958842498076
1499.0,9.495204114617504,11.222359335478467
1500.0,10.44038239525038,8.569320988783781
1501.0,12.444122180370876,7.664255393116571
1502.0,19.234537205730003,7.516478226699531
1503.0,26.171185653556243,5.378112385239167
1504.0,22.249097988782907,3.9479869967491874
1505.0,19.597513664130318,4.988432822491337
1506.0,40.662076320473844,5.319688023051059
1507.0,30.641176409084842,4.400781031494808
1508.0,25.84501216767606,4.625966552613763
1509.0,18.372993705743507,4.315833988985052
1510.0,17.299881982690792,4.200786782061369
1511.0,15.613749016522423,5.518410700236034
1512.0,14.10206681595352,8.27268756682604
1513.0,10.55103340797676,5.942795396316246
1514.0,14.11543605882709,6.004058988480704
1515.0,13.593516613205834,5.5032096673324045
1516.0,12.540906615021484,6.997552906050152
1517.0,11.023131392604249,8.032769472856018
1518.0,22.939791502753735,6.099449252557042
1519.0,22.013847364280096,7.030369787568843
1520.0,63.67191188040913,6.5704169944925255
1521.0,43.00354051927616,5.803473080813758
1522.0,41.18087557603687,4.389016897081413
1523.0,27.57507680491552,5.679032258064516
1524.0,23.6333389532052,5.544512195121952
1525.0,32.82477239518939,4.271814469296767
1526.0,24.180435352740624,4.277228279195235
1527.0,16.914334419841893,4.557584953729721
1528.0,10.347720205312651,3.8267955490614813
1529.0,7.350230414746543,3.6927803379416284
1530.0,8.188279212660309,4.0770371164219625
1531.0,30.519254813703427,4.869163719501303
1532.0,39.38443539456293,4.212999678491051
1533.0,25.45066623798807,4.0577287178937596
1534.0,16.995763226520918,3.7511377844461116
1535.0,13.459139784946236,3.7950844854070658
1536.0,10.749923195084484,3.9943164362519203
1537.0,6.768380727586077,3.336495447903788
1538.0,6.676592297028961,4.941607658012064
