time,Engagement,Excitement,Stress,Relaxation,Interest,Focus
4.0,0.413717,0.427491,0.3825,0.348891,0.48103500000000005,0.17968699999999999
5.0,0.4081858666666666,0.4181812,0.37196213333333333,0.33968006666666667,0.47081520000000004,0.17500126666666665
6.0,0.40186457142857146,0.40754142857142855,0.3599188571428571,0.3291532857142857,0.4591354285714286,0.16964614285714286
7.0,0.39491114666666666,0.39583768,0.3466712533333334,0.31757382666666667,0.44628768,0.16375550666666666
8.0,0.38748872258064515,0.3833445290322581,0.33253011612903227,0.3052133483870968,0.43257336774193555,0.15746755483870967
9.0,0.37919202258064516,0.3693798290322581,0.31672331612903226,0.29139694838709673,0.4172436677419355,0.15043895483870967
10.0,0.37089532258064517,0.355415129032258,0.30091651612903225,0.2775805483870968,0.4019139677419355,0.14341035483870967
11.0,0.3625986225806451,0.3414504290322581,0.28510971612903224,0.26376414838709683,0.38658426774193555,0.13638175483870968
12.0,0.35430192258064513,0.32748572903225803,0.26930291612903223,0.24994774838709677,0.37125456774193555,0.12935315483870968
13.0,0.34600522258064514,0.31352102903225804,0.2534961161290322,0.2361313483870968,0.35592486774193555,0.12232455483870967
14.0,0.3377085225806451,0.29955632903225804,0.23768931612903227,0.22231494838709676,0.3405951677419355,0.11529595483870966
15.0,0.337069164516129,0.29962708709677416,0.2388918064516129,0.22200693548387096,0.35030149354838713,0.12372454193548386
16.0,0.3402584774193548,0.30671557419354833,0.24859894193548387,0.22845311612903224,0.37252583225806457,0.13988172258064516
17.0,0.3453621258064516,0.3173129258064516,0.26255839999999997,0.2382763935483871,0.4010091774193548,0.1599032
18.0,0.35142294193548385,0.32966470967741934,0.27864401935483873,0.24978821935483872,0.4326220258064516,0.18185682580645163
19.0,0.3579623419354838,0.3428937096774194,0.29579271935483875,0.26214431935483873,0.4657996258064516,0.20477652580645161
20.0,0.3645017419354838,0.3561227096774193,0.3129414193548387,0.2745004193548387,0.49897722580645165,0.2276962258064516
21.0,0.3710411419354839,0.36935170967741937,0.33009011935483873,0.2868565193548387,0.5321548258064517,0.2506159258064516
22.0,0.37758054193548385,0.38258070967741936,0.3472388193548387,0.29921261935483867,0.5653324258064516,0.2735356258064516
23.0,0.3841199419354838,0.39580970967741935,0.3643875193548387,0.31156871935483876,0.5985100258064516,0.29645532580645156
24.0,0.39065934193548385,0.40903870967741934,0.3815362193548387,0.32392481935483874,0.6316876258064517,0.3193750258064516
25.0,0.4016010129032258,0.41555870322580646,0.38776682903225806,0.3343827516129032,0.6502486064516129,0.3324727903225806
26.0,0.4147438193548387,0.4187241935483871,0.3885383935483871,0.34389159999999996,0.6615012774193549,0.34065958709677413
27.0,0.4289871935483871,0.4202124322580645,0.386580435483871,0.3529259064516129,0.6690997935483871,0.3463909
28.0,0.4437808516129032,0.42086204516129033,0.38325771612903226,0.3617229419354839,0.6748712322580646,0.35089447096774196
29.0,0.4588496516129032,0.4210923451612903,0.37925261612903227,0.3704013419354839,0.6797291322580645,0.35478417096774195
30.0,0.47391845161290325,0.42132264516129025,0.37524751612903223,0.3790797419354839,0.6845870322580645,0.35867387096774195
31.0,0.48898725161290324,0.42155294516129027,0.3712424161290322,0.38775814193548386,0.6894449322580646,0.36256357096774194
32.0,0.5040560516129032,0.42178324516129034,0.3672373161290322,0.39643654193548383,0.6943028322580646,0.36645327096774194
33.0,0.5191248516129032,0.4220135451612903,0.3632322161290322,0.40511494193548386,0.6991607322580646,0.37034297096774194
34.0,0.5341936516129032,0.4222438451612903,0.35922711612903224,0.4137933419354839,0.7040186322580646,0.37423267096774193
35.0,0.5442310709677419,0.4267351,0.3708927774193548,0.4303968516129032,0.7115227258064517,0.3822749387096774
36.0,0.5517528,0.43335683225806454,0.39039381935483863,0.4509629161290323,0.7203499161290323,0.39239349032258064
37.0,0.5580166838709677,0.44104380322580644,0.4138125516129032,0.4735102580645161,0.7298386548387097,0.40355018387096775
38.0,0.5636516451612903,0.44926339354838707,0.439190129032258,0.4970482387096774,0.7396581677419356,0.4152259483870967
39.0,0.5689721451612904,0.457749293548387,0.46554712903225803,0.5210815387096774,0.7496430677419355,0.4271612483870967
40.0,0.5742926451612904,0.46623519354838705,0.4919041290322581,0.5451148387096774,0.7596279677419355,0.4390965483870967
41.0,0.5796131451612903,0.4747210935483871,0.5182611290322581,0.5691481387096774,0.7696128677419356,0.45103184838709676
42.0,0.5849336451612903,0.4832069935483871,0.544618129032258,0.5931814387096773,0.7795977677419355,0.46296714838709674
43.0,0.5902541451612904,0.4916928935483871,0.5709751290322581,0.6172147387096774,0.7895826677419355,0.4749024483870967
44.0,0.5955746451612903,0.500178793548387,0.5973321290322582,0.6412480387096774,0.7995675677419356,0.4868377483870967
45.0,0.5892696483870967,0.5051688999999999,0.6034072193548388,0.6441129774193548,0.8033105580645161,0.4837157064516129
46.0,0.5771519032258066,0.5084111096774193,0.5993413548387098,0.6363937354838709,0.8039325935483872,0.47306499354838705
47.0,0.5621277838709677,0.510779370967742,0.5902050129032259,0.6233824032258064,0.8029941516129032,0.45864994516129026
48.0,0.5456504774193549,0.5127106580645161,0.5785334322580645,0.6077250258064516,0.8012754709677419,0.442352729032258
49.0,0.5284465774193549,0.5144234580645161,0.5655942322580645,0.5907446258064515,0.7991666709677419,0.42511442903225805
50.0,0.5112426774193548,0.5161362580645161,0.5526550322580646,0.5737642258064516,0.7970578709677419,0.407876129032258
51.0,0.4940387774193548,0.5178490580645161,0.5397158322580645,0.5567838258064516,0.7949490709677419,0.3906378290322581
52.0,0.4768348774193548,0.519561858064516,0.5267766322580645,0.5398034258064516,0.7928402709677419,0.37339952903225804
53.0,0.45963097741935477,0.5212746580645161,0.5138374322580646,0.5228230258064516,0.7907314709677419,0.3561612290322581
54.0,0.4424270774193548,0.5229874580645162,0.5008982322580645,0.5058426258064517,0.788622670967742,0.33892292903225807
55.0,0.4294972419354838,0.5160073032258065,0.4802863096774193,0.48871017419354834,0.774332193548387,0.32287869354838705
56.0,0.4187044387096774,0.5046806709677419,0.4558380258064516,0.4715016967741935,0.7539508774193547,0.30743149032258066
57.0,0.4089801516129032,0.4911808,0.4294715612903226,0.4542552064516129,0.7305241419354838,0.29228280322580646
58.0,0.39979012258064506,0.47659430967741934,0.4021460064516129,0.43698970967741935,0.7055746967741935,0.27728337419354837
59.0,0.3908672225806451,0.46146450967741937,0.3743409064516129,0.4197147096774193,0.6798638967741936,0.2623585741935484
60.0,0.38194432258064515,0.44633470967741934,0.34653580645161286,0.4024397096774193,0.6541530967741935,0.2474337741935484
61.0,0.37302142258064513,0.4312049096774193,0.3187307064516129,0.38516470967741934,0.6284422967741935,0.23250897419354838
62.0,0.3640985225806451,0.41607510967741934,0.2909256064516129,0.3678897096774193,0.6027314967741936,0.2175841741935484
63.0,0.35517562258064517,0.40094530967741937,0.2631205064516129,0.35061470967741937,0.5770206967741935,0.2026593741935484
64.0,0.3462527225806451,0.38581550967741934,0.23531540645161286,0.3333397096774193,0.5513098967741936,0.18773457419354841
65.0,0.34065797741935483,0.3690460709677419,0.22149120967741934,0.32188112258064516,0.5301443870967742,0.18918990322580648
66.0,0.3367273096774194,0.35145681290322583,0.214657464516129,0.3133307419354838,0.5112515225806452,0.19883529677419357
67.0,0.33362868064516127,0.3334576451612903,0.21131894516129032,0.306234464516129,0.4934949806451613,0.21257572258064517
68.0,0.3309460709677419,0.31525352258064515,0.2097280387096774,0.2998652387096774,0.4763066,0.22836366451612905
69.0,0.328471470967742,0.29694692258064515,0.2090109387096774,0.2938595387096774,0.45940230000000004,0.24517536451612904
70.0,0.3259968709677419,0.27864032258064514,0.20829383870967738,0.2878538387096774,0.44249800000000006,0.2619870645161291
71.0,0.3235222709677419,0.26033372258064513,0.20757673870967738,0.2818481387096774,0.4255937,0.27879876451612906
72.0,0.3210476709677419,0.24202712258064515,0.20685963870967738,0.2758424387096774,0.4086894,0.29561046451612905
73.0,0.3185730709677419,0.22372052258064515,0.2061425387096774,0.2698367387096775,0.3917851,0.31242216451612903
74.0,0.3160984709677419,0.20541392258064514,0.2054254387096774,0.2638310387096775,0.3748808,0.329233864516129
75.0,0.32894722580645164,0.1984442516129032,0.2114997193548387,0.2662237903225807,0.3725188483870967,0.3363956548387097
76.0,0.3494576580645161,0.19714304516129028,0.22096969032258063,0.2728157677419355,0.3774280709677419,0.3387324903225807
77.0,0.3737989290322581,0.19867607096774192,0.2321375064516129,0.2815073580645162,0.3859728806451612,0.33865684838709675
78.0,0.4000556193548387,0.2016262129032258,0.2441542451612903,0.2912487548387097,0.39633548387096773,0.33737496774193554
79.0,0.4272700193548387,0.20528491290322576,0.2565954451612903,0.3015150548387097,0.4076069838709677,0.3354899677419355
80.0,0.4544844193548387,0.20894361290322577,0.26903664516129033,0.3117813548387097,0.4188784838709677,0.3336049677419355
81.0,0.4816988193548387,0.2126023129032258,0.2814778451612903,0.3220476548387097,0.4301499838709677,0.33171996774193546
82.0,0.5089132193548387,0.2162610129032258,0.2939190451612903,0.3323139548387097,0.44142148387096775,0.32983496774193544
83.0,0.5361276193548387,0.2199197129032258,0.30636024516129035,0.3425802548387097,0.45269298387096774,0.3279499677419355
84.0,0.5633420193548386,0.22357841290322578,0.31880144516129033,0.3528465548387097,0.4639644838709677,0.3260649677419355
85.0,0.5655047433691756,0.2248747157706093,0.3245837318996416,0.35358621971326165,0.4658224498207885,0.3254050860215054
86.0,0.555141629390681,0.22498982007168455,0.32703656200716846,0.3495625670250896,0.4629736487455197,0.3253577634408602
87.0,0.5385155964157706,0.22451432508960573,0.32782466379928316,0.34315725555555554,0.4577714641577061,0.32561672043010753
88.0,0.5187581039426523,0.2237435304659498,0.32778040143369175,0.33556111469534045,0.45139258781362,0.32602881720430105
89.0,0.49743488172043004,0.22282508602150536,0.3273199569892473,0.32736955913978494,0.4444253655913978,0.32651748387096774
90.0,0.4761116594982079,0.22190664157706091,0.32685951254480283,0.31917800358422943,0.43745814336917554,0.3270061505376344
91.0,0.4547884372759856,0.22098819713261647,0.32639906810035846,0.3109864480286738,0.43049092114695336,0.32749481720430107
92.0,0.43346521505376345,0.22006975268817203,0.325938623655914,0.3027948924731183,0.4235236989247312,0.32798348387096776
93.0,0.4121419928315412,0.21915130824372758,0.32547817921146954,0.29460333691756274,0.41655647670250895,0.3284721505376344
94.0,0.4094933111111111,0.21982271899641576,0.3259609318996416,0.29167255842293904,0.411092853046595,0.3340427440860215
95.0,0.41618189964157704,0.22128905734767024,0.3269152831541219,0.2913721684587814,0.4063810286738351,0.3421543010752688
96.0,0.427539123297491,0.22315285949820787,0.32810543369175627,0.29238697275985664,0.4020451039426523,0.35153633978494625
97.0,0.441230664516129,0.2252153935483871,0.32941348387096775,0.2940593741935484,0.39789712903225805,0.36155361935483876
98.0,0.456089364516129,0.2273772935483871,0.3307804838709677,0.29606057419354836,0.39384312903225804,0.3718885193548387
99.0,0.47094806451612903,0.2295391935483871,0.3321474838709677,0.2980617741935484,0.38978912903225804,0.3822234193548387
100.0,0.48580676451612903,0.23170109354838708,0.3335144838709677,0.3000629741935484,0.38573512903225804,0.39255831935483876
101.0,0.500665464516129,0.23386299354838708,0.3348814838709677,0.30206417419354836,0.38168112903225804,0.40289321935483874
102.0,0.515524164516129,0.23602489354838707,0.33624848387096773,0.3040653741935484,0.37762712903225804,0.4132281193548387
103.0,0.530382864516129,0.23818679354838707,0.33761548387096774,0.3060665741935483,0.37357312903225803,0.42356301935483875
104.0,0.534713770967742,0.2371905516129032,0.33833587741935484,0.3054007806451613,0.3739614,0.4293863838709677
105.0,0.5337807806451613,0.23461523870967743,0.3387329677419355,0.3034014903225806,0.3765708064516129,0.43295398064516133
106.0,0.5302158419354839,0.23125039032258066,0.33896840645161286,0.3007354516129032,0.3802907806451613,0.4353936935483871
107.0,0.5253349290322581,0.22749077419354838,0.3391230193548387,0.29773603870967735,0.3845660387096774,0.437269464516129
108.0,0.5197960290322581,0.22353377419354836,0.3392372193548387,0.2945699387096774,0.3891189387096774,0.43886326451612906
109.0,0.5142571290322582,0.21957677419354837,0.3393514193548387,0.2914038387096774,0.3936718387096774,0.44045706451612904
110.0,0.508718229032258,0.21561977419354839,0.3394656193548387,0.2882377387096774,0.3982247387096774,0.442050864516129
111.0,0.5031793290322581,0.2116627741935484,0.33957981935483866,0.28507163870967744,0.4027776387096774,0.443644664516129
112.0,0.4976404290322581,0.20770577419354838,0.33969401935483867,0.28190553870967744,0.4073305387096774,0.44523846451612903
113.0,0.4921015290322581,0.20374877419354837,0.3398082193548387,0.27873943870967743,0.4118834387096774,0.446832264516129
114.0,0.49415560967741934,0.20438991612903223,0.337695064516129,0.2803974419354839,0.41596144838709675,0.44630978064516125
115.0,0.5000061806451613,0.20733012903225806,0.33446823225806455,0.2844674967741936,0.41980201290322583,0.4447291548387097
116.0,0.5077549967741936,0.21141987741935483,0.33068456129032253,0.2897435774193548,0.4235238548387097,0.4426194580645161
117.0,0.516452935483871,0.2160843935483871,0.3266224709677419,0.295622670967742,0.42718633548387097,0.44024522580645153
118.0,0.525625435483871,0.22103629354838708,0.3224211709677419,0.30180327096774195,0.43081913548387096,0.43773872580645157
119.0,0.534797935483871,0.2259881935483871,0.3182198709677419,0.30798387096774194,0.43445193548387095,0.43523222580645154
120.0,0.543970435483871,0.23094009354838707,0.3140185709677419,0.3141644709677419,0.43808473548387095,0.4327257258064516
121.0,0.5531429354838711,0.23589199354838708,0.3098172709677419,0.3203450709677419,0.441717535483871,0.43021922580645156
122.0,0.562315435483871,0.24084389354838706,0.30561597096774196,0.326525670967742,0.445350335483871,0.4277127258064516
123.0,0.571487935483871,0.24579579354838707,0.3014146709677419,0.33270627096774197,0.448983135483871,0.42520622580645157
124.0,0.5722839193548388,0.24417458387096772,0.2992308677419354,0.32883530967741936,0.4463379483870968,0.41798240967741934
125.0,0.5688916451612903,0.23926681935483868,0.2980558129032258,0.3199385677419355,0.44055376774193555,0.40839993548387094
126.0,0.5634052419354838,0.2327157774193548,0.2973851322580645,0.30852893548387095,0.43320009032258067,0.3976381322580645
127.0,0.5568717741935484,0.2253430967741935,0.2969666387096774,0.2958628580645162,0.42506166451612903,0.38628666451612903
128.0,0.5498147741935484,0.2175595967741935,0.29667423870967735,0.28256855806451614,0.41653086451612903,0.37464036451612903
129.0,0.5427577741935483,0.2097760967741935,0.2963818387096774,0.2692742580645161,0.408000064516129,0.362994064516129
130.0,0.5357007741935483,0.20199259677419354,0.2960894387096774,0.2559799580645161,0.3994692645161291,0.35134776451612904
131.0,0.5286437741935484,0.19420909677419354,0.29579703870967744,0.24268565806451614,0.390938464516129,0.33970146451612904
132.0,0.5215867741935483,0.18642559677419357,0.29550463870967747,0.2293913580645161,0.38240766451612906,0.32805516451612904
133.0,0.5145297741935483,0.17864209677419357,0.29521223870967744,0.21609705806451612,0.373876864516129,0.31640886451612904
134.0,0.5097614451612902,0.17818618387096774,0.2962046387096775,0.2137143451612903,0.37422312258064516,0.3056117
135.0,0.5061374516129031,0.18139406451612905,0.29783943870967744,0.2167874258064516,0.3790079096774194,0.29523910322580643
136.0,0.5030856258064516,0.18643384193548387,0.2997954387096774,0.22258840322580645,0.38601196129032256,0.28507879032258066
137.0,0.5003198838709677,0.1923895677419355,0.3019120387096774,0.22975332903225804,0.39412564516129034,0.2750246193548387
138.0,0.49769718387096773,0.1988032677419355,0.3041089387096774,0.23760022903225805,0.4027941451612903,0.2650235193548387
139.0,0.4950744838709677,0.20521696774193549,0.3063058387096774,0.24544712903225802,0.4114626451612903,0.2550224193548387
140.0,0.4924517838709677,0.2116306677419355,0.30850273870967737,0.25329402903225806,0.4201311451612903,0.2450213193548387
141.0,0.48982908387096774,0.21804436774193547,0.31069963870967743,0.26114092903225805,0.42879964516129027,0.2350202193548387
142.0,0.4872063838709677,0.2244580677419355,0.3128965387096774,0.26898782903225804,0.4374681451612903,0.2250191193548387
143.0,0.48458368387096773,0.2308717677419355,0.31509343870967743,0.27683472903225803,0.44613664516129026,0.21501801935483872
144.0,0.47974157741935486,0.23141480967741934,0.3139979516129032,0.28269200322580645,0.4461905387096774,0.2106389064516129
145.0,0.4737897677419355,0.22902252258064518,0.31125627096774194,0.287554464516129,0.441937129032258,0.2090707870967742
146.0,0.4672831064516129,0.22516257096774195,0.3076914935483871,0.2919195193548387,0.4355300677419354,0.20890816451612904
147.0,0.4604990193548387,0.22056878709677422,0.3037151677419355,0.2960358709677419,0.42804618064516126,0.20944829032258064
148.0,0.4535762193548387,0.2156080870967742,0.29953306774193544,0.3000278709677419,0.4200238806451613,0.21033979032258063
149.0,0.4466534193548387,0.21064738709677422,0.2953509677419355,0.30401987096774197,0.41200158064516124,0.21123129032258064
150.0,0.4397306193548387,0.2056866870967742,0.29116886774193546,0.30801187096774196,0.4039792806451613,0.21212279032258063
151.0,0.43280781935483875,0.2007259870967742,0.28698676774193543,0.31200387096774196,0.39595698064516127,0.21301429032258062
152.0,0.4258850193548388,0.1957652870967742,0.28280466774193547,0.31599587096774195,0.3879346806451613,0.21390579032258064
153.0,0.4189622193548388,0.1908045870967742,0.2786225677419355,0.31998787096774195,0.3799123806451613,0.21479729032258063
154.0,0.4191276258064517,0.1923607387096774,0.2772714870967742,0.32167628387096775,0.38660404193548387,0.2222867258064516
155.0,0.42283713548387103,0.19717531612903227,0.27733591612903224,0.3222129032258064,0.40065268387096775,0.23307512903225805
156.0,0.42831869677419354,0.2036191064516129,0.27810809999999997,0.3221736258064516,0.4183798161290323,0.2455130161290322
157.0,0.43468628387096775,0.21087750322580645,0.2792341612903225,0.3218464,0.4379461935483871,0.25877564516129026
158.0,0.44149688387096775,0.21854320322580645,0.2805371612903226,0.32137519999999997,0.45843219354838705,0.27245064516129025
159.0,0.44830748387096775,0.22620890322580645,0.2818401612903226,0.32090399999999997,0.4789181935483871,0.28612564516129024
160.0,0.4551180838709677,0.23387460322580644,0.2831431612903226,0.32043279999999996,0.49940419354838705,0.2998006451612903
161.0,0.4619286838709677,0.24154030322580647,0.2844461612903226,0.31996159999999996,0.5198901935483871,0.3134756451612903
162.0,0.4687392838709677,0.24920600322580644,0.2857491612903226,0.31949039999999995,0.5403761935483871,0.3271506451612903
163.0,0.4755498838709677,0.25687170322580644,0.2870521612903225,0.31901919999999995,0.5608621935483871,0.3408256451612903
164.0,0.48095361935483866,0.25980377741935484,0.2938477548387096,0.32373199999999996,0.5624164258064516,0.3452120774193548
165.0,0.4856539225806451,0.2603690387096774,0.3033896451612903,0.3310368,0.5545047741935484,0.3449542258064515
166.0,0.4900025096774193,0.2597508935483871,0.3143046838709677,0.3396376,0.5418601806451613,0.34237423225806446
167.0,0.4941752387096774,0.25854104516129034,0.3259062967741936,0.3488864,0.5268491161290323,0.3386331677419354
168.0,0.49826003870967744,0.25703534516129034,0.3378511967741935,0.3584592,0.5106548161290323,0.33431156774193543
