time,emg_right_hand,emg_left_hand
0.0,4.682926829268292,6.487804878048781
1.0,6.09430894308943,6.429268292682927
2.0,5.733797909407665,11.117770034843206
3.0,5.291645373596593,10.686705381339529
4.0,5.165124730660017,9.624099753161286
5.0,5.038521302799568,8.541509244907045
6.0,5.494068639110997,8.616069522607132
7.0,5.969693642922927,7.65972634273551
8.0,5.9042016601711405,6.625178071521365
9.0,6.520475066501817,6.49140159604361
10.0,7.1381177175827055,5.866284515379716
11.0,5.965194260237533,6.558090742197745
12.0,5.846877224532614,6.599186991869919
13.0,5.0619946798546325,6.561882282417294
14.0,6.520167846839759,7.809512569780075
15.0,4.917073170731708,7.715892997639653
16.0,6.333438237608183,6.232848151062155
17.0,7.039358772619984,5.489103068450039
18.0,6.899173878835563,5.673544453186468
19.0,6.770613690007868,5.2097167584579065
20.0,6.696789179873365,5.026862987523884
21.0,6.73706492825297,6.753400022479487
22.0,6.6812783335206625,6.987636281892772
23.0,6.858042036641564,7.442021655239594
24.0,5.826345959312127,7.016054100633172
25.0,6.936982503465588,6.181222134801994
26.0,6.291858678955453,5.775504851822712
27.0,5.9263984114495525,6.250215428421566
28.0,8.262972537559477,6.133303360683376
29.0,7.112210108276198,6.272001798358998
30.0,6.977033456970514,7.090892060994343
31.0,6.653385036154509,6.185437038702184
32.0,8.841848092685192,5.144579698931702
33.0,9.903378806374068,4.564658063470572
34.0,9.55041181898262,3.8378533657804694
35.0,11.951520022862859,3.6236773479084055
36.0,10.35940056442682,3.619058336012574
37.0,10.141244239631337,3.7819508448540704
38.0,8.029493087557602,3.5933947772657446
39.0,7.068049155145929,3.641628264208909
40.0,6.957910906298003,4.099078341013825
41.0,6.2678187403993855,4.532334869431644
42.0,5.166935483870967,5.131451612903225
43.0,6.498387096774193,4.7427419354838705
44.0,6.775,4.441129032258065
45.0,6.460483870967742,3.915322580645161
46.0,6.764516129032258,3.865322580645161
47.0,7.354622344610544,4.5602478363493315
48.0,7.5485994270612675,4.16900936068914
49.0,15.456429925961793,4.3468473239322964
50.0,15.723032036151627,4.2582289334059595
51.0,14.96142750509391,3.8419980229578967
52.0,18.130202344207063,3.548064314390042
53.0,14.851110861339029,3.924806114420591
54.0,9.914540481810349,4.105204001348769
55.0,7.579895845041399,5.4142969540294485
56.0,7.496946536285639,6.38747143231801
57.0,7.564768805441778,6.8491617677938645
58.0,5.809650147728569,5.3093735106250435
59.0,6.327720431850123,4.889147809600484
60.0,6.390127497031052,4.6987213702380295
61.0,6.530240399821209,4.258423665149737
62.0,7.690176463976622,4.968146566258289
63.0,6.746852871754523,6.539457120377655
64.0,6.437863886703383,5.197738001573564
65.0,8.108851298190402,5.544433516915814
66.0,9.422364280094413,6.284047993705744
67.0,10.881498517218422,6.000884625471565
68.0,8.586618652787024,6.136319574734209
69.0,8.474210191853778,6.517854909318324
70.0,8.23526599285844,6.3117008614254875
71.0,6.7360624295714775,6.374388514711096
72.0,12.335198194147841,6.1413894196545655
73.0,12.360645910606571,6.241691956090067
74.0,13.161777378142446,6.365928590161477
75.0,8.947693804984347,8.101870850988007
76.0,7.974399523225754,7.71083014656103
77.0,6.139520768693915,7.63118218579035
78.0,5.567006647132166,8.119288968583609
79.0,5.8971090333559,7.819479260058918
80.0,7.502793076317859,7.869079464988198
81.0,6.40875295043273,9.758693941778127
82.0,7.232022029897718,8.471990558615262
83.0,8.604996066089694,8.81900078678206
84.0,6.892191188040913,8.468115656963022
85.0,7.35483870967742,6.761605035405193
86.0,8.042486231313926,8.678992918961448
87.0,7.105900865460267,8.726671911880409
88.0,7.901101494885916,8.294492525570416
89.0,7.579976396538159,8.284146341463412
90.0,6.953638867033831,8.859067663257278
91.0,6.585542879622345,7.16610936270653
92.0,8.404012588512982,7.659480723839496
93.0,8.555271439811172,6.811644374508261
94.0,7.2712627852084974,7.246656176239181
95.0,7.498190401258851,6.48198269079465
96.0,10.297262730316724,7.987327319634787
97.0,8.863029476881415,7.613254533145482
98.0,8.149138656615373,9.141717746509798
99.0,8.521845095420197,9.771606316213198
100.0,8.954208674119748,8.883948600390514
101.0,7.945148177288225,8.998915364729683
102.0,7.773990296354576,8.472549735866021
103.0,7.043849986886966,7.795549061481397
104.0,7.18164175190139,7.1554456558390465
105.0,6.839181746656176,6.962037765538945
106.0,7.395043273013375,6.714535798583793
107.0,7.729779701022817,6.558477576711251
108.0,6.549567269866247,7.678835562549173
109.0,6.472108575924469,8.093705743509048
110.0,6.014867659222498,7.285318444995864
111.0,7.487007000342956,6.835204462466461
112.0,6.787858338881156,6.165182876394521
113.0,7.861671104924449,7.005978534971454
114.0,8.14978716536545,6.966698944905081
115.0,8.062155782848151,15.249685287175453
116.0,7.512903225806451,12.773387096774194
117.0,7.050806451612903,9.755645161290323
118.0,7.4326923076923075,9.66064929693962
119.0,6.807071960297766,9.956534325889164
120.0,7.121277915632755,11.768589743589743
121.0,6.621526054590571,9.539536807278743
122.0,5.849875930521092,8.713316790736146
123.0,6.514516129032258,8.758064516129032
124.0,6.240322580645161,8.125
125.0,6.548387096774194,7.774193548387097
126.0,7.523387096774194,7.587096774193548
127.0,7.543382961124896,9.714909015715467
128.0,7.371691480562449,10.547373862696443
129.0,8.131410256410255,9.29344499586435
130.0,6.938295608142186,8.929718170630839
131.0,7.526809094393673,9.042278440154128
132.0,7.694256490952006,7.635365853658536
133.0,6.613768686073957,7.273505114083399
134.0,6.249134539732494,7.837765538945712
135.0,6.228815892997639,7.834697088906373
136.0,6.1704563335955935,8.118961447678993
137.0,7.010228166797797,8.09819040125885
138.0,7.569236821400472,8.744217151848938
139.0,8.295633359559403,8.101455546813533
140.0,8.113985051140833,8.342623918174665
141.0,7.872423288749015,8.013394964594806
142.0,7.963808025177026,7.502753737214791
143.0,7.845940579221461,8.369150650031845
144.0,6.800232288037165,7.727061556329848
145.0,8.498857292720391,8.164160203814019
146.0,7.488217001985689,8.552575774605671
147.0,7.781087257877186,7.926956652054999
148.0,7.567466561762391,7.049724626278521
149.0,6.386093627065302,7.113611329661683
150.0,6.576473198975165,7.348617079222901
151.0,7.621910871714176,7.504914361798704
152.0,8.932355907926326,8.021930036918235
153.0,8.57963192721257,8.284057071960298
154.0,10.257154673283704,7.135980148883375
155.0,9.675806451612903,7.883870967741935
156.0,8.905645161290323,8.372580645161289
157.0,7.772580645161291,7.765322580645162
158.0,7.60514888337469,7.99410669975186
159.0,7.458622828784119,9.08697270471464
160.0,6.428750832173334,8.483454881074865
161.0,7.010539853537493,7.926296677358834
162.0,7.15123766870423,7.563148338679417
163.0,6.0736821400472065,7.148426435877262
164.0,7.033123524783635,8.598583792289535
165.0,7.200312839533925,7.391495260574725
166.0,7.471274024952231,6.697508523472331
167.0,6.211531977070923,6.7825858903750325
168.0,6.02000674384624,6.806713873590349
169.0,6.801487392754112,9.311940354426586
170.0,6.178206136900078,11.18950207935259
171.0,11.612603499306882,8.27927016597355
172.0,8.658386722116068,7.4275973174478285
173.0,7.16459855381964,7.797197557229028
174.0,7.227537372147914,9.46372934697089
175.0,6.710385523210071,8.769708890637293
176.0,6.491384736428009,8.375334382376082
177.0,6.702419354838709,9.113709677419354
178.0,6.253225806451613,7.922580645161291
179.0,7.021774193548387,7.600806451612904
180.0,6.19044665012407,7.651199338296113
181.0,7.504900744416873,7.814309346567411
182.0,7.370595533498759,7.85312241521919
183.0,10.301426799007443,8.772125723738625
184.0,8.612406947890818,7.776385442514474
185.0,7.574193548387096,8.06048387096774
186.0,7.026612903225805,7.720967741935484
187.0,7.112903225806452,7.164516129032258
188.0,7.088709677419354,7.066129032258065
189.0,6.820181968569065,8.981699751861042
190.0,7.295810889870685,8.309368758699994
191.0,7.331402691198128,8.6804908309629
192.0,6.898116766527467,8.424962173939356
193.0,7.12567128648954,8.989093990195485
194.0,7.346813532651455,9.97309205350118
195.0,7.3000786782061375,9.180881195908732
196.0,6.615814319433516,8.763139260424861
197.0,6.596813532651455,9.747344610542878
198.0,6.436386797047694,9.783829755348245
199.0,6.683732344235884,9.657217788767749
200.0,6.087922895357986,10.973245663332209
201.0,8.263709677419355,9.867818740399386
202.0,7.852714398111723,10.880152485856655
203.0,8.822230339814919,10.883746393915551
204.0,8.71758645236222,9.391292945187516
205.0,9.405428796223447,8.905389457120378
206.0,7.973249409913453,9.233674272226594
207.0,7.970889063729347,7.446892210857593
208.0,8.719590873328087,7.264516129032257
209.0,8.596523172604996,7.0063167359784195
210.0,8.845861901015322,6.109767337304709
211.0,8.764075905736014,6.182173766438124
212.0,7.596342400059946,6.228623880708853
213.0,8.425686561013077,7.950563860477313
214.0,7.147098272826046,7.6851897643400395
215.0,6.043932411674347,7.492626728110599
216.0,6.200921658986175,7.871121351766512
217.0,8.557296466973886,6.234562211981567
218.0,7.019585253456221,6.781874039938556
219.0,5.994470046082949,5.723195084485408
220.0,6.171020914569302,5.457840009452912
221.0,5.936662531017369,4.841976840363937
222.0,8.521115443696088,4.742301784237268
223.0,15.86496370139171,4.970914857500224
224.0,15.372574016594474,7.127738534740895
225.0,10.669035442658574,6.538996290884568
226.0,8.493791914877674,5.367078790603575
227.0,8.01632760106403,4.776396538158931
228.0,8.073860102656326,4.20409126671912
229.0,7.125274437076168,5.303124648758009
230.0,9.042958300550747,6.194020456333596
231.0,6.87462627852085,8.920692368214004
232.0,8.777340676632573,7.829268292682927
233.0,9.109362706530291,7.354838709677419
234.0,9.486231313926043,7.324154209284028
235.0,7.439024390243901,7.778127458693941
236.0,6.450039339103069,9.105428796223446
237.0,8.47993705743509,8.70023603461841
238.0,6.126829268292683,8.1375295043273
239.0,7.396380802517703,8.028953579858378
240.0,9.995594020456334,7.237136113296616
241.0,8.613296616837136,7.217545239968528
242.0,7.3758064516129025,7.191935483870967
243.0,9.235442514474773,7.020926385442515
244.0,8.219334160463193,7.460463192721257
245.0,8.142328370554175,7.935070306038048
246.0,8.200599669148055,6.262696443341604
247.0,7.031348221670802,6.6410256410256405
248.0,8.656451612903226,7.132258064516129
249.0,9.708064516129031,7.129032258064516
250.0,7.560483870967742,5.623387096774193
251.0,6.903163771712158,6.957961124896609
252.0,7.586564183259698,6.915634771732332
253.0,6.4973340192458995,7.388737920877968
254.0,6.765327119772438,6.86464826807077
255.0,6.290019972160019,7.089975589582199
256.0,6.014162077104642,7.491738788355625
257.0,6.684425461766139,8.058896257165337
258.0,5.7594320182833165,7.773743958637743
259.0,6.415121201903263,7.258626503315725
260.0,7.532501592297028,7.390131505001685
261.0,8.279862125810197,7.232123187591322
262.0,8.25314150837361,6.910070810385523
263.0,7.286939417781275,7.501809598741148
264.0,9.034762654078154,7.136125400956242
265.0,6.934139784946236,6.827543424317618
266.0,6.458602150537634,7.686352357320098
267.0,7.251881720430108,7.297208436724565
268.0,8.64731182795699,7.286104218362283
269.0,8.125806451612904,7.108064516129032
270.0,7.557258064516129,7.74516129032258
271.0,6.4627065302911095,7.1092053501180175
272.0,7.114417781274587,8.398151062155783
273.0,8.132612116443745,7.35875295043273
274.0,6.977442770971488,6.492414109624967
275.0,7.443117530253643,7.694151586677158
276.0,7.60000093664531,17.488303173354314
277.0,6.9350221048293434,13.952019407290848
278.0,6.738882020156607,11.80262260687123
279.0,7.0294256490952005,9.784107002360347
280.0,7.847531723456192,8.904359579575946
281.0,7.606299299965704,7.493564526215982
282.0,5.843196856906534,7.785649296939619
283.0,5.059904880066171,9.119437551695617
284.0,5.277129859387923,8.951654259718776
285.0,5.634677419354839,8.294354838709676
286.0,5.162903225806452,8.167741935483871
287.0,5.518651778329198,7.102129859387923
288.0,7.18326373338175,7.562306078395771
289.0,7.165373015392685,7.920118420787186
290.0,7.5621219915673095,7.75925275878069
291.0,6.951881216082633,6.507478464362808
292.0,6.076003147128246,7.120692368214005
293.0,5.591502753737215,7.873485444531864
294.0,5.173800157356412,6.849409913453973
295.0,7.003933910306845,7.040912667191188
296.0,6.195121951219512,7.009441384736428
297.0,6.789929189614476,6.981117230527143
298.0,6.986624704956727,6.964594807238395
299.0,7.47993705743509,6.883870967741935
300.0,7.1371248735528825,7.478708178786857
301.0,6.603180847476677,7.4293619572140415
302.0,6.431409463864224,6.824830467198681
303.0,7.397608744520625,7.5059636206961144
304.0,6.567854332921209,8.011921621520361
305.0,7.160424862313139,7.772934697088906
306.0,7.196262785208496,8.349881982690796
307.0,6.645023603461841,7.0806845003933905
308.0,6.448662470495671,7.2735641227380015
309.0,6.932435090479937,6.6599921321793865
310.0,6.816050354051928,7.589024390243902
311.0,5.833910306845004,7.367446892210857
312.0,5.863729346970889,6.712352478363494
313.0,6.0778127458693945,6.458064516129032
314.0,5.828048780487805,7.485916601101495
315.0,5.939988198269079,8.074980330448465
316.0,6.8475478625754,7.435954066913941
317.0,6.677157094151587,7.862725263197332
318.0,6.985163538271328,8.43894945861901
319.0,6.486193848113597,6.872915964182683
320.0,6.70889063729347,5.680828743771308
321.0,6.415683189089956,6.104304821850061
322.0,7.077393128769998,7.061515117455322
323.0,6.456899329361958,6.09028136825147
324.0,6.480603948896632,5.601554831216514
325.0,5.103128395339253,5.126276647559102
326.0,5.071391105616125,4.857709527556105
327.0,5.753437488291933,5.3961934734554715
328.0,5.387686860739575,8.429504327301338
329.0,5.492427222659323,7.022462627852084
330.0,5.600649095200629,8.249134539732493
331.0,6.279760031471283,8.901180173092053
332.0,6.351573564122738,9.940912667191188
333.0,7.82983870967742,9.020967741935483
334.0,8.334178187403992,8.573771121351765
335.0,8.242757858454159,7.686442995766362
336.0,7.836996553145254,7.140861151699074
337.0,15.046820089168634,7.954973586602225
338.0,10.81209021767637,6.1741036304372265
339.0,13.78123712112697,4.628526469596493
340.0,18.996440747817616,5.740699112060245
341.0,15.03147128245476,5.330916788430557
342.0,12.703682889363456,5.25469259300888
343.0,10.717563972874752,5.786519800681877
344.0,7.006106927428721,5.20767299838897
345.0,5.030354801243865,4.673938780862462
346.0,4.661106740099659,5.959934060170094
347.0,6.550852347233149,4.732524071784496
348.0,5.729189614476789,4.252360346184107
349.0,6.224154209284029,4.736093627065303
350.0,7.697560975609756,5.216030684500393
351.0,6.886208113942182,6.568385482862273
352.0,7.267100909842845,5.446112489660877
353.0,6.52024400330852,5.06095947063689
354.0,6.391976840363937,4.653060380479735
355.0,6.057278742762614,6.274110835401158
356.0,6.07983870967742,6.635483870967742
357.0,5.199999999999999,6.990322580645161
358.0,6.755397022332505,7.297746071133167
359.0,7.921650124069478,8.173469809760132
360.0,7.802357320099255,7.844396195202647
361.0,8.611603522362767,8.894650890677642
362.0,8.686043696665255,7.388454477596886
363.0,7.04897718332022,7.80531077891424
364.0,6.256746656176239,6.739752163650669
365.0,6.114752163650669,6.622226593233674
366.0,7.4389653815893,6.979091266719119
367.0,7.067387883556255,5.924272226593233
368.0,6.993371361132967,6.76536191974823
369.0,5.597167584579072,6.839496459480724
370.0,6.490558615263572,6.700629425649095
371.0,6.876315986662171,5.946545652092466
372.0,7.851462103330711,5.106182795698924
373.0,5.830204937994081,6.841781874039938
374.0,6.849799557903413,5.915776853621071
375.0,7.385167284852571,6.250964744670488
376.0,6.723075193885579,6.705129069723876
377.0,7.164917013225432,7.596804166198344
378.0,7.029155895245587,8.383117904911767
379.0,8.434640890187703,8.290772170394515
380.0,7.999539170506912,7.884331797235022
381.0,7.72073732718894,7.530875576036866
382.0,8.059677419354838,8.056451612903224
383.0,7.442741935483871,8.293548387096774
384.0,8.892741935483869,8.248387096774191
385.0,7.175806451612903,7.410483870967742
386.0,6.913709677419354,7.1379032258064505
387.0,7.528225806451612,5.895161290322581
388.0,6.662686860739575,6.48552321007081
389.0,5.487391817466561,6.256432879997002
390.0,6.494079464988198,6.118539020643662
391.0,6.186997489790567,6.807061369000786
392.0,5.895170656775692,7.002360346184107
393.0,6.856712000299726,7.062155782848151
394.0,6.415683189089956,6.4312315012551045
395.0,7.758195646472593,6.417031958338017
396.0,7.345150050578846,6.7008354876175495
397.0,6.355108463527031,6.9516765951069655
398.0,6.071810722715522,8.40612940691619
399.0,5.378992918961448,7.567427222659323
400.0,9.266129032258064,7.951612903225807
401.0,8.39274193548387,7.385483870967742
402.0,6.780645161290322,7.395967741935484
403.0,7.618548387096774,7.6822580645161285
404.0,6.82983870967742,6.791129032258064
405.0,6.605996691480562,6.769127377998345
406.0,6.420740281224152,6.9131927212572375
407.0,5.978515301902399,7.311435070306038
408.0,5.770306038047973,7.719830438378825
409.0,6.091604631927213,6.706286186931348
410.0,7.326612903225806,6.082258064516129
411.0,8.813709677419356,6.52741935483871
412.0,6.575806451612904,6.3137096774193555
413.0,6.641935483870967,6.483870967741935
414.0,6.959677419354838,6.608064516129032
415.0,7.358477576711251,7.1051730920535014
416.0,6.046615900490803,7.114433704244876
417.0,6.862420853471208,8.038668465025664
418.0,7.563180472818552,8.347521636506688
419.0,7.416031621145704,6.50786782061369
420.0,7.306026375931962,7.359718631748528
421.0,6.83043254280469,6.5634998688696555
422.0,7.286894458806339,6.763796785433291
423.0,7.099284402982279,6.389194859690532
424.0,7.561443932411674,7.335431418830317
425.0,7.695084485407065,8.10703982615863
426.0,6.261904761904761,7.688850174216027
427.0,5.857757296466974,6.660170094788505
428.0,6.731771008954329,6.920209059233449
429.0,6.66092877749054,7.0419298639991
430.0,6.427163650668764,5.807690794649881
431.0,7.829269229328237,5.404824659997752
432.0,8.741650743696376,5.6044284590311335
433.0,8.415278558315537,7.0551646622457005
434.0,7.27114383125398,8.388490502416545
435.0,7.915666329474354,8.398415196133527
436.0,7.864636956277397,7.0882994267730695
437.0,8.010947510396761,8.444149713386535
438.0,7.942849649694654,9.259147278108726
439.0,7.309010527893298,7.772234086396164
440.0,5.821303060956877,7.503740961372747
441.0,5.880753812146416,8.127952306020756
442.0,6.1063092428159305,7.306826271027687
443.0,7.05507474429583,6.772844779139035
444.0,7.058221872541306,6.820726087445205
445.0,7.888276947285602,7.346633696751714
446.0,7.312802068112847,6.839346596230939
447.0,6.985590648533213,7.4166835262822675
448.0,8.512150162976283,7.786452362219475
449.0,8.598718669214342,8.276782436027126
450.0,7.5028211756771945,8.489138660971864
451.0,7.626573059775263,8.018851499929392
452.0,7.873770400855372,7.907006395125985
453.0,6.394408803889528,8.316957170812403
454.0,5.870847202888902,7.50190895519377
455.0,6.255063648651374,8.570909237628356
456.0,7.245377655389457,9.073800157356413
457.0,8.38937844217152,7.608575924468922
458.0,8.770313963508299,7.448793600839234
459.0,8.627702221722679,8.386572252819303
460.0,7.8713648795474125,8.257644899029636
461.0,8.512787081787868,7.975399947547863
462.0,6.88542579895845,7.009729871492263
463.0,7.000393391030684,8.147875688434304
464.0,7.166601101494885,8.935070810385522
465.0,6.242977970102281,8.94213217938631
466.0,7.580763178599527,7.881549960660896
467.0,6.7208118985656355,7.972246262785208
468.0,5.915647884766688,8.430881195908732
469.0,7.406761786600496,10.213709677419356
470.0,7.023138957816377,8.717741935483872
471.0,5.651488833746898,8.79032258064516
472.0,5.970161290322581,8.62741935483871
473.0,7.172580645161291,8.208870967741936
474.0,9.340322580645163,9.021774193548387
475.0,9.325,8.264516129032259
476.0,8.137861869313483,7.867907361455748
477.0,7.451592224979322,6.971856906534326
478.0,6.237489660876758,8.108105872622001
479.0,7.373180314309346,9.778246484698098
480.0,7.408767576509511,9.11654259718776
481.0,8.651612903225807,9.23709677419355
482.0,7.804032258064516,9.693548387096774
483.0,6.838709677419354,8.904838709677419
484.0,7.34516129032258,7.649193548387096
485.0,6.886600496277916,8.942638544251448
486.0,7.40136476426799,9.753577336641854
487.0,6.647594262543121,9.070720611672618
488.0,7.182235368879743,9.489667937622304
489.0,7.882669612055921,8.743044039621537
490.0,8.19274193548387,7.946125098347757
491.0,8.66205837173579,7.846315237345921
492.0,8.276347832602749,7.211119853134015
493.0,6.696002397811997,7.701547338054025
494.0,6.193398523846989,7.637555730396013
495.0,7.01408714547975,8.133097298714922
496.0,6.186152635719905,8.004720692368213
497.0,7.947442958300551,7.701809598741148
498.0,7.83831628638867,8.130841856805665
499.0,8.25173092053501,7.930173092053501
500.0,9.980996691480561,8.008581472291148
501.0,9.289288668320925,8.174048800661703
502.0,8.772870140612076,8.342266335814722
503.0,11.088854425144746,7.955810587262199
504.0,10.412572373862695,8.666211745244002
505.0,9.638709677419355,7.4927419354838705
506.0,8.062903225806451,7.1217741935483865
507.0,8.026612903225807,7.011290322580645
508.0,6.934539732494098,6.769374508261211
509.0,7.603501180173091,7.010837922895357
510.0,7.540652279794687,7.052365966055973
511.0,8.39796185980293,7.130116893334831
512.0,9.659248435802331,7.581993930538383
513.0,7.131669851260725,8.072271552208608
514.0,6.438140197070174,8.589086208834438
515.0,8.497222054106398,7.449305009179123
516.0,8.036179870483569,6.7827956989247316
517.0,7.120843672456576,7.378494623655914
518.0,7.098325062034739,7.474731182795699
519.0,6.590694789081885,6.197849462365591
520.0,6.533064516129032,7.951612903225806
521.0,7.4145161290322585,8.71532258064516
522.0,6.869354838709677,7.893548387096773
523.0,6.212096774193548,7.359677419354838
524.0,6.530645161290322,9.533870967741935
525.0,6.475,8.818548387096774
526.0,5.6459677419354835,8.116129032258064
527.0,7.441660110149488,7.682336742722265
528.0,6.815401258851298,6.965932336742722
529.0,7.008833501929489,9.33127646023004
530.0,6.245791652616987,8.9401661608782
531.0,6.832602749990633,8.893971750777414
532.0,6.37814244501892,7.7919898092990145
533.0,5.733131017946124,7.470739200479562
534.0,5.872541306058222,7.184893784421716
535.0,8.873170731707319,7.661211644374508
536.0,9.064044059795437,7.288906372934697
537.0,8.654209284028326,7.084657749803304
538.0,8.788945712037766,7.934146341463415
539.0,7.104150275373722,8.72513768686074
540.0,7.892800944138473,8.540794649881983
541.0,7.730503727848339,7.746213143007006
542.0,7.281784121988686,8.123509797309953
543.0,7.653087182945562,8.79267543366678
544.0,7.45242872129182,8.285008055149676
545.0,6.681456296129781,7.444490652279795
546.0,6.1509638080251765,6.807592446892211
547.0,6.229110936270653,9.125570416994492
548.0,5.913768686073958,7.713768686073957
549.0,6.151612903225807,6.336428009441384
550.0,5.482258064516129,5.976947285601888
551.0,6.52043666404406,6.39822974036192
552.0,8.067722265932336,7.57309205350118
553.0,6.178888014686598,8.008973062080852
554.0,5.944282717020718,8.24091454048181
555.0,5.839627589824285,7.79329361957214
556.0,7.267768161552583,7.475403694129107
557.0,5.944977707841595,7.40174590685999
558.0,5.747600314712824,6.775767112509834
559.0,6.356490952006294,6.677025963808025
560.0,8.373367427222659,6.141424075531077
561.0,8.43412667191188,6.181254917387883
562.0,7.778756884343037,6.700708103855232
563.0,6.672266941031693,7.76285985192358
564.0,8.153442675865964,8.058298533357542
565.0,6.93085194375517,7.899172870140612
566.0,6.6573614557485525,8.106844499586435
567.0,7.44722911497105,8.40140612076096
568.0,8.459677419354838,7.659677419354838
569.0,7.998387096774193,8.521774193548387
570.0,7.801612903225806,8.459677419354838
571.0,8.097849462365591,9.350703060380479
572.0,7.919813794912143,8.400508886602514
573.0,7.951366781657891,8.891724666626319
574.0,8.586383626863563,8.763977990276182
575.0,7.7969093586717495,7.75910347192802
576.0,8.610623575218384,5.993887308600133
577.0,7.043500690235544,5.936080441981308
578.0,7.3325090854595185,5.826570754186804
579.0,8.175789591997301,5.8089618223371176
580.0,7.980742572402683,6.333895320520025
581.0,6.775935708665843,5.4797684612790825
582.0,7.049866996365816,4.620658648982803
583.0,6.825877636656551,5.3760256266157125
584.0,6.957716084073283,6.296384549098947
585.0,7.3149563523285,5.579528680079427
586.0,6.985051140833988,6.3410700236034625
587.0,7.091424075531078,6.257159716758458
588.0,7.4221670802315955,5.557547559966915
589.0,7.4022125723738625,7.6694995864350695
590.0,7.319251447477253,8.129507857733664
591.0,7.062448304383787,6.351447477253929
592.0,6.357030603804796,5.890239867659222
593.0,5.931451612903226,6.195161290322581
594.0,6.15,5.805645161290323
595.0,6.919354838709677,6.559677419354839
596.0,6.155624483043837,6.910380479735318
597.0,7.731746151828764,7.4963192721257235
598.0,6.381775908329804,7.974575843773326
599.0,6.37798472835845,8.233255663822147
600.0,7.052298815792128,9.094853638362686
601.0,7.617859952793077,7.805350118017309
602.0,8.079189614476789,26.193784421715183
603.0,8.935121389232325,44.162794574950354
604.0,9.71036023378667,42.07494567457195
605.0,8.544902776216702,25.838072758607773
606.0,8.396762953804654,16.1369750103031
607.0,7.4340227042823415,9.797441085009929
608.0,7.375800831741037,6.605035405192762
609.0,6.793863099921322,6.311565696302124
610.0,5.644374508261211,6.651455546813533
611.0,5.9666404405979545,7.092840283241542
612.0,7.668627569650386,6.501099477496016
613.0,8.811890496076177,5.7861122879218865
614.0,8.148824870382699,5.321301619964091
615.0,7.588181121265306,5.530044987794791
616.0,7.8981228186971695,6.55373217131675
617.0,7.889673485444531,6.524095200629425
618.0,9.702163650668764,6.490971675845791
619.0,8.898662470495672,8.430566483084185
620.0,8.122161028061893,9.4553829006032
621.0,6.342532126934172,8.940997901914503
622.0,6.991830579596118,7.824127983215316
623.0,6.743279569892472,8.066666666666666
624.0,5.822043010752688,7.1670076055599266
625.0,8.354032258064517,7.468450039339103
626.0,7.865578284815106,7.526357199055861
627.0,7.336283766063467,8.312564160203813
628.0,7.652150537634408,6.905987036828893
629.0,6.464548911618149,7.667785021168183
630.0,7.678468397587202,7.811134839458993
631.0,6.65473380540257,7.043254280469071
632.0,8.239968528717545,6.863099921321794
633.0,10.419167509647448,8.515042523697126
634.0,11.67945000187329,8.483878460904425
635.0,8.38659473230677,7.456243677644149
636.0,8.419497208796972,7.641969203102169
637.0,6.9733205949571015,8.608946836012139
638.0,6.5632347982466,8.491186167622045
639.0,6.5386197594694835,8.137626915439661
640.0,9.416522423288747,9.465538945712037
641.0,7.829856505938331,9.09268480011989
642.0,8.61628826196096,8.497767974223521
643.0,8.49840770297104,7.046120415121202
644.0,8.270053576111797,8.143044471919374
645.0,6.8177175827057805,9.009287774905399
646.0,7.247296841632011,8.720100408377355
647.0,8.005743509047994,7.681038552321007
648.0,6.902557041699449,8.947915027537372
649.0,6.230192761605036,8.077025963808024
650.0,6.63808025177026,7.466561762391818
651.0,7.6144767899291885,8.103855232100708
652.0,7.368843430369787,7.750590086546026
653.0,7.340991345397325,7.955153422501967
654.0,7.843831253980742,8.013956015136188
655.0,7.900279120302724,7.872831666104679
656.0,7.487905099097073,8.214149900715597
657.0,9.09673672773594,9.751564197669625
658.0,9.32806938668465,10.206623955640477
659.0,8.93675770859091,9.115132441646995
660.0,6.543516541156196,8.486755835300288
661.0,6.614952605747256,7.447233149750852
662.0,6.611014948859166,7.0808811959087326
663.0,6.249252557041699,7.6793863099921325
664.0,6.780487804878049,8.54897718332022
665.0,7.463335955940204,7.489752163650669
666.0,7.520377655389456,7.34366640440598
667.0,6.980645161290322,7.225806451612903
668.0,6.3741935483870975,9.129838709677419
669.0,7.700475599669148,10.263172043010753
670.0,6.894995864350703,8.523924731182795
671.0,6.461207609594707,8.262365591397849
672.0,5.758829611248966,8.184408602150537
673.0,7.366914805624482,7.076881720430107
674.0,7.151612903225805,7.278225806451612
675.0,6.283851298190402,7.6211054287962225
676.0,5.661453298864785,9.64198512607246
677.0,8.337768348881646,9.373677456820651
678.0,7.5001685961560085,8.70449215091229
679.0,9.095245588400584,9.77805252706905
680.0,8.62763852984152,10.090206436626577
681.0,7.019118804091266,10.484657749803304
682.0,9.438119590873328,11.715342250196695
683.0,9.358870967741934,11.974193548387095
684.0,8.201178660049628,10.339764267990073
685.0,7.054218362282878,9.454962779156327
686.0,7.349689826302729,7.5581265508684865
687.0,6.05217575500817,7.512413000060521
688.0,6.994144525812503,17.81124190522302
689.0,5.716557079165261,25.095978981679217
690.0,5.657265557678618,23.587476115544565
691.0,5.385410812633472,14.747405492488104
692.0,7.9248061144205915,10.15851785245963
693.0,6.660185081113484,8.92272676182983
694.0,7.386160128882395,6.322730508411075
695.0,6.409838522348357,5.770334569705144
696.0,6.7082986774568205,6.5834775767112514
697.0,6.439751227005358,7.136349331235248
698.0,6.667033831628639,7.27931137836724
699.0,7.492325848816801,7.33725110452097
700.0,7.374565756823822,7.11166253101737
701.0,6.813895781637717,5.605024813895781
702.0,6.350496277915633,4.924689826302729
703.0,5.864764267990075,5.090570719602978
704.0,7.224193548387095,5.111290322580645
705.0,7.934677419354838,4.574193548387097
706.0,7.169354838709677,4.348387096774193
707.0,6.3798387096774185,4.504032258064516
708.0,5.295967741935484,4.424193548387096
709.0,5.392446892210858,4.658516915814319
710.0,5.578756884343036,4.465715971675846
711.0,5.908811959087332,4.532966168371361
712.0,5.5832022029897725,5.426730920535012
713.0,5.20047206923682,4.991188040912666
714.0,5.71014948859166,4.687490165224233
715.0,7.619826907946498,5.333910306845004
716.0,5.8240755310778916,4.758221872541306
717.0,5.588355625491738,3.929622344610543
718.0,6.200629425649096,3.788198269079465
719.0,6.084185680566483,3.8360346184107
720.0,4.928953579858378,4.906294256490952
721.0,6.754012588512982,5.041660110149488
722.0,7.016915814319433,7.089201416207711
723.0,6.006038552321007,6.711132966168371
724.0,6.016011014948859,7.245456333595594
725.0,6.2173092053501176,7.768686073957514
726.0,6.469315499606609,7.840047206923682
727.0,6.705940204563335,7.464083398898506
728.0,5.9654602675059,7.646970889063729
729.0,7.930723839496459,6.796734854445319
730.0,6.379209284028324,7.188375295043272
731.0,7.977261998426436,7.471125098347757
732.0,7.653068450039339,7.7870967741935475
733.0,8.73998819826908,8.035562549173878
734.0,6.704858379228954,7.307317073170731
735.0,8.460267505900866,8.906372934697089
736.0,9.288749016522424,7.978756884343037
737.0,7.610542879622344,6.830055074744296
738.0,8.445318646734854,6.831628638867033
739.0,8.462627852084971,6.973249409913453
740.0,8.097560975609756,7.120377655389457
741.0,8.09236821400472,7.523524783634933
742.0,6.920692368214004,7.332179386309992
743.0,8.381431943351691,6.535798583792289
744.0,8.512116443745082,7.3328088119590875
745.0,8.283782923082686,7.381701697201304
746.0,8.630424112996891,7.277042823423626
747.0,8.351404031321419,7.225067438462403
748.0,7.353190213929789,7.384062043385411
749.0,8.41475403694129,7.225941328537709
750.0,8.093312352478364,8.616679779701023
751.0,7.187883556254917,8.157671125098348
752.0,8.564755910231913,7.3180173092053495
753.0,8.168687947248136,7.629504327301337
754.0,7.066464351279457,7.237608182533438
755.0,6.265332883743584,7.109362706530291
756.0,7.511502004420965,6.829661683713611
757.0,8.442958300550748,6.784421715184893
758.0,6.6036866359447,7.663744333295867
759.0,6.099246937169832,7.8000074931624885
760.0,6.913116780937394,7.046345209995879
761.0,6.5769360458581545,8.200591959836649
762.0,5.47847589074969,7.806039488966318
763.0,7.667348544453186,8.139732494099135
764.0,8.775452399685287,7.684343036978756
765.0,7.6256571647602325,7.948719966107849
766.0,7.285133853819928,7.47648429461962
767.0,7.582299421009099,7.902915632754342
768.0,6.202440033085194,7.0921836228287845
769.0,6.724607113316791,7.338833746898263
770.0,6.8959677419354835,7.202419354838709
771.0,6.798131392604248,8.006372934697088
772.0,5.791365066876475,8.023524783634933
773.0,5.572324940991345,8.478973249409913
774.0,6.588140197070173,8.18489753100296
775.0,6.105091603911431,8.56164999438013
776.0,6.741598291558952,7.506725113334083
777.0,6.728784983702371,8.016934547225656
778.0,7.193267393503428,6.937263497058933
779.0,6.287033082312389,7.238293806901202
780.0,7.911284702708778,7.995181896519425
781.0,7.463116060441001,7.968464161068409
782.0,8.1660977627146,7.834035385018862
783.0,7.5736074966208715,8.02748189392564
784.0,7.182771490245919,8.446805463091852
785.0,6.252440033085195,8.778949545078577
786.0,5.812903225806451,8.236290322580645
787.0,6.093548387096774,8.870967741935484
788.0,5.77258064516129,8.755645161290321
789.0,6.054838709677419,9.551612903225806
790.0,5.791129032258064,8.564516129032258
791.0,6.206963021243116,8.601809598741148
792.0,6.990007867820613,8.42857985837923
793.0,6.994020456333596,7.9398505114083395
794.0,6.8268489378442165,8.87476396538159
795.0,6.986369937432093,9.35280056948035
796.0,6.20679629837773,8.779862125810197
797.0,7.223854482784459,8.914242628601402
798.0,7.4022498220373905,9.623525720280245
799.0,7.483717357910906,8.077370649282528
800.0,6.19516129032258,9.171557828481511
801.0,7.254622344610542,8.866109362706531
802.0,6.062391817466562,7.990715971675845
803.0,5.913380338518025,8.634103976275494
804.0,5.94480976013234,8.222952853598015
805.0,6.724421009098428,8.410669975186105
806.0,6.674710504549214,8.415818858560794
807.0,7.631306865177833,8.737344913151365
808.0,8.005645161290323,8.786290322580644
809.0,7.054032258064516,7.893548387096774
810.0,7.458870967741936,9.368548387096775
811.0,8.150806451612903,8.858064516129033
812.0,8.689743589743589,8.704052936311001
813.0,10.26607557142569,8.577498537392323
814.0,8.85400552764833,8.43350733321229
815.0,7.371987028182937,7.416684823175775
816.0,7.295838124634348,7.967056022917548
817.0,8.283084185680567,7.256884343036978
818.0,7.691109362706531,6.412470495672698
819.0,8.270653029110935,5.326514555468135
820.0,7.148402083099171,5.679180248023679
821.0,7.661533850361544,5.157056685774231
822.0,8.403858978681953,4.975145180023229
823.0,8.840852721891274,7.520729834026451
824.0,9.716649807051066,7.806391667603312
825.0,10.819538421190664,6.90242778464651
826.0,8.82833726724364,8.460261886028999
827.0,9.14400734329924,7.287389007530628
828.0,7.184676482709527,7.573878835562549
829.0,6.383990858341763,7.983953392529317
830.0,7.9625454272975915,9.711095500355924
831.0,7.168526844254618,8.901181109737365
832.0,7.401122101082763,8.211285639354088
833.0,7.403413135513843,8.283091678843055
834.0,7.504701959461991,7.815892997639654
835.0,6.758645236221947,6.93910306845004
836.0,7.378818270635737,6.527571667776231
837.0,7.392277143260621,5.333603375381503
838.0,8.013979791517164,5.420126778545346
839.0,6.805789116469683,5.612258885882017
840.0,6.787975203396131,5.299274604231331
841.0,6.1107864074032445,4.614484283091679
842.0,5.159127392408273,4.382712697740235
843.0,5.414817152425334,5.431371709853221
844.0,6.499398385511682,4.722654496041592
845.0,6.5774922690737005,4.78539294432292
846.0,5.470807503537637,4.521728730225976
847.0,4.975602262935071,4.284189427147727
848.0,5.453875838297554,4.215836798920984
849.0,5.337293469708891,6.3097560975609746
850.0,7.476765576411524,6.972138548574425
851.0,6.71383518789105,7.357725450526393
852.0,7.174590685999026,7.654452811809223
853.0,8.123959387059308,9.243040725338128
854.0,8.054033194709827,8.759128545202504
855.0,9.25405192761605,9.806215578284814
856.0,8.97053501180173,9.644492525570417
857.0,7.4604838709677415,9.134677419354839
858.0,7.740984284532672,9.332278742762615
859.0,8.904363110008271,11.061703887510339
860.0,7.522746071133168,10.91875516956162
861.0,5.829114971050455,9.384780810587262
862.0,7.321009098428453,9.637551695616212
863.0,7.982258064516128,9.038709677419355
864.0,7.004032258064516,8.754032258064516
865.0,6.587903225806452,8.73225806451613
866.0,6.0249999999999995,7.425806451612903
867.0,6.252419354838709,7.141129032258064
868.0,6.135483870967741,7.369354838709677
869.0,6.762096774193548,7.662096774193548
870.0,6.660867895545314,6.614247311827957
871.0,6.1131149076467715,6.291712562286913
872.0,5.330141246112921,7.162791765014424
873.0,7.162689670675508,7.427690045333632
874.0,6.118972687422727,7.68907122250946
875.0,6.592589262298153,7.353137761792364
876.0,7.72587763665655,8.174995316773444
877.0,9.466007268367616,8.074909145404817
878.0,9.750668764752163,7.810188827694728
879.0,9.669748229740362,7.712332808811959
880.0,8.19213217938631,7.846892210857593
881.0,7.038709677419354,8.283084185680567
882.0,7.351861042183622,8.036062861869313
883.0,6.353349875930521,7.315612076095947
884.0,7.321029776674937,7.76708023159636
885.0,7.539143920595533,7.652088502894953
886.0,7.673200992555831,7.620802315963606
887.0,6.679032258064516,7.787903225806452
888.0,8.27016129032258,6.2387096774193544
889.0,9.768548387096773,6.341935483870968
890.0,8.798387096774194,7.15241935483871
891.0,7.925806451612903,7.040322580645161
892.0,7.3153225806451605,7.6499999999999995
893.0,7.2395948072383955,7.34870180959874
894.0,6.9517505900865455,7.761487018095987
895.0,8.953352253568617,8.11503690382526
896.0,7.3963948521973695,8.980826870480687
897.0,7.480386647184444,9.795586527293844
898.0,9.674969090704732,9.649799557903414
899.0,9.501921996178487,9.803577985088607
900.0,8.950039339103068,9.87513768686074
901.0,7.867230527143981,9.677143981117231
902.0,6.289476789929189,8.320239968528718
903.0,5.5878835562549165,8.498426435877262
904.0,7.070554681353264,9.573406766325729
905.0,7.0372934697088905,8.58831628638867
906.0,8.835649296939618,9.236248966087675
907.0,8.624276261373035,8.142721257237387
908.0,8.578267162944583,8.898779983457402
909.0,8.692762613730356,10.097373862696443
910.0,9.716542597187757,9.866832092638544
911.0,9.308064516129033,9.909677419354837
912.0,8.933064516129033,10.337903225806452
913.0,8.833870967741934,10.936290322580644
914.0,6.778225806451613,9.879838709677419
915.0,6.688709677419355,9.056451612903226
916.0,7.51430934656741,9.370223325062035
917.0,6.9618013706723385,7.597822876048683
918.0,7.028609182582432,7.025317810959038
919.0,5.939304591291216,6.220723421608551
920.0,6.889508707919408,6.124022214344794
921.0,10.86303997602188,7.1857779775954445
922.0,8.939968528717545,7.057789142407554
923.0,7.703265145554681,6.619767899291896
924.0,8.495987411487018,5.969158143194335
925.0,7.571361132966168,4.875216365066876
926.0,6.670997714585441,4.810767674497021
927.0,7.338724663744333,4.913448353377543
928.0,7.467159342100333,6.850901989434641
929.0,13.072942190251394,7.665216739725001
930.0,16.64803679142782,9.215613877336931
931.0,11.667336368064142,6.999512007792889
932.0,9.735761117979843,7.632954928627627
933.0,9.202262935071747,7.805069124423963
934.0,8.584758907496909,6.612361844816604
935.0,6.3447604061294065,6.626034993068824
936.0,5.40631673597842,8.573358060769548
937.0,5.145254954853696,7.427971975572291
938.0,4.988835187891048,6.732081975197632
939.0,5.407084785133565,6.8522723015248586
940.0,8.155782848151063,7.823760818253344
941.0,9.820613690007868,7.106215578284814
942.0,8.590423738338766,6.400134876924806
943.0,8.98639991008205,5.644599303135888
944.0,8.048668090367538,6.764077779026638
945.0,7.415383462590387,8.586827020343936
946.0,6.819339852384699,6.830467198681203
947.0,7.307894046682403,5.941478400959125
948.0,7.8059270915289805,4.894346408901876
949.0,7.238132703907684,5.215859278408452
950.0,8.091416582368588,4.198175414933873
951.0,6.007305833426997,4.3520062942564905
952.0,8.478161177925143,4.881274586939417
953.0,9.03370424487655,4.674815480873702
954.0,7.161751152073732,4.57612548741581
955.0,6.156753212693417,4.54943361778531
956.0,6.488290060319958,4.241072040993362
957.0,7.135234723314975,4.702203998466784
958.0,6.301449926941665,4.995149618281011
959.0,5.116316361320295,5.379626091191787
960.0,4.562279420029223,5.3946948409576265
961.0,4.040459330860589,6.725783972125436
962.0,5.338025577823027,6.712351302111243
963.0,5.810717858035938,7.49864876933519
964.0,5.913442646375879,7.466509484513985
965.0,6.592459961680316,8.644104841541395
966.0,8.92786611286968,6.799994423693031
967.0,8.149829530553369,8.415301037803005
968.0,10.902948559439512,8.643287999700274
969.0,9.936113296616837,9.09291896144768
970.0,9.562077104642015,9.138670338316285
971.0,8.5,8.875
972.0,8.816315136476426,8.406451612903226
973.0,8.410980148883375,7.544354838709678
974.0,7.494602977667494,7.451612903225806
975.0,7.288558373176784,7.643509047993705
976.0,8.799924347878715,6.678206136900078
977.0,7.518076317859953,7.777812745869394
978.0,9.136860739575138,9.728422501966955
979.0,7.7593627065302915,9.716915814319433
980.0,6.735306845003934,8.847836349331235
981.0,7.243646734854446,8.950354051927615
982.0,6.389988198269078,8.36075924468922
983.0,6.303922670563111,7.398486381177175
984.0,7.945824435202877,6.930163725600389
985.0,7.622007418230864,6.768701060282492
986.0,6.446015510846353,6.698040538009066
987.0,6.926862987523885,6.719909332733881
988.0,6.264122738001573,6.814870180959875
989.0,5.8822580645161295,7.843548387096774
990.0,8.127419354838711,7.866129032258065
991.0,7.990322580645161,7.554032258064516
992.0,7.399193548387097,7.616129032258064
993.0,7.054032258064516,7.154838709677419
994.0,6.275,6.829032258064516
995.0,7.755409126671911,6.988926042486232
996.0,7.351970485585749,8.367178075006557
997.0,6.725621356089491,8.894190925780226
998.0,7.190633258689907,7.009998688696564
999.0,7.403381145473985,8.018305795961185
1000.0,7.474782626238173,6.61607658012064
1001.0,7.074154209284028,7.016797797010229
1002.0,7.972898167921771,7.658412011539471
1003.0,8.275139560151363,7.3586414896407035
1004.0,7.087992207111011,6.32452043760069
1005.0,5.712524821100747,6.400547000861714
1006.0,6.915271065153047,7.10782660822
1007.0,6.232059495710164,6.619504701959462
1008.0,6.836229440635419,6.8871717058184405
1009.0,7.025334382376082,7.240283241542093
1010.0,6.563650668764752,6.419512195121952
1011.0,7.108602150537634,6.921753515301902
1012.0,7.9147849462365585,16.07055417700579
1013.0,15.643279569892474,25.248986765922254
1014.0,12.196236559139784,16.23215467328371
1015.0,12.168279569892473,12.1156741108354
1016.0,14.373387096774191,9.292741935483871
1017.0,11.666935483870967,9.462096774193547
1018.0,10.677419354838708,11.841129032258063
1019.0,8.708064516129031,9.739516129032257
1020.0,8.793548387096774,9.438709677419354
1021.0,9.093745082612116,9.284854445318647
1022.0,8.273485444531865,8.645422614364392
1023.0,7.536388670338316,7.658736090817129
1024.0,8.958280881195908,7.634000224794875
1025.0,8.414259488217002,7.823835749878235
1026.0,8.911299689033754,7.743939904836836
1027.0,8.579843392903975,7.083721104492151
1028.0,7.162069611479525,6.942332621482897
1029.0,6.260421115731894,7.779584878798097
1030.0,5.558182533438237,7.775727773406766
1031.0,5.749822974036192,8.253874901652242
1032.0,6.187411487018096,7.816050354051928
1033.0,6.213375295043273,7.604720692368213
1034.0,5.887962234461053,7.717387883556255
1035.0,5.997763290996964,7.014308193773182
1036.0,6.048429245813194,7.558806339215465
1037.0,6.283680828743771,6.9050944138473636
1038.0,6.285676819901839,4.80824997190064
1039.0,7.944082274924131,4.378835562549174
1040.0,6.75153422501967,5.764302573901315
1041.0,6.214439324116743,5.663594470046084
1042.0,5.54487655014799,4.656457232775093
1043.0,5.548475141433443,5.895048892885242
1044.0,6.738139260424862,6.212117380390394
1045.0,8.071777003484321,7.464257614926379
1046.0,7.079590498669964,8.363695627739688
1047.0,7.060330261136713,9.566820276497696
1048.0,27.912315012551048,9.693323592222098
1049.0,62.519877486793305,8.078547075793338
1050.0,51.780507474429584,7.185090479937058
1051.0,47.67859859128545,6.234519126297254
1052.0,33.218538083998354,6.182346109175377
1053.0,22.51732793825634,6.645423551009704
1054.0,12.674047431718556,7.408939342849649
1055.0,9.404686973137013,7.265051890150238
1056.0,8.789442134052678,6.881308306170619
1057.0,6.829811546963397,7.657412610992469
1058.0,8.22919710763928,8.307538121464164
1059.0,8.302911093627067,8.277734067663257
1060.0,7.687018095987411,7.405035405192761
1061.0,6.881510621557828,7.959559402045633
1062.0,7.032808811959088,8.735169158143194
1063.0,6.623957513768686,9.87560975609756
1064.0,7.074999999999999,9.372580645161289
1065.0,6.429838709677419,9.006451612903223
1066.0,6.008361629881154,8.658955857385397
1067.0,5.986035653650255,8.682322305327398
1068.0,5.174872665534805,8.422612765566925
1069.0,7.588242784380306,8.649209608589914
1070.0,7.9324278438030555,8.650814481714312
1071.0,6.740322580645161,8.51386224934612
1072.0,7.195967741935483,8.103225806451613
1073.0,6.787037765538946,9.432317073170731
1074.0,8.87309205350118,8.122974036191973
1075.0,9.452989771833202,6.892859952793076
1076.0,9.068135326514556,6.08082218725413
1077.0,10.239968528717545,6.276947285601889
1078.0,8.47616050354052,5.546813532651456
1079.0,8.552163650668765,4.5076317859952795
1080.0,8.621872541306058,4.011487018095988
1081.0,7.849881982690794,4.6933910306845
1082.0,7.884736428009441,5.2223052714398115
1083.0,7.85746333393855,5.891963222982105
1084.0,7.0400219895499205,7.946384837297504
1085.0,8.785628618693135,20.599234904880067
1086.0,7.606927212572374,16.316149710504547
1087.0,6.577253928866832,16.568155500413567
1088.0,6.853225806451613,21.06935483870968
1089.0,10.808870967741935,13.805184331797236
1090.0,8.57231807951988,8.409728324938378
1091.0,7.9793618047368975,6.0049217661558245
1092.0,7.763628581361368,4.826428231622366
1093.0,8.811653000358103,3.829746373875699
1094.0,9.42136544589109,4.111428205483427
1095.0,7.690892060994342,5.8510022104829345
1096.0,8.3467667003859,6.400661271589675
1097.0,9.994713213615654,6.575887939754974
1098.0,9.346382964006882,6.428571428571429
1099.0,7.1956652054999815,6.464048670972353
1100.0,7.836926304746919,7.6791825536121365
1101.0,6.961185418305796,7.238725816538562
1102.0,8.056192378300953,6.7892553813875605
1103.0,7.719520264681554,7.2301902398676585
1104.0,6.2790322580645155,6.827419354838709
1105.0,6.887903225806451,7.16774193548387
1106.0,6.5572580645161285,7.848387096774193
1107.0,5.081058221872541,7.333969315499607
1108.0,5.169158143194335,6.460129819040126
1109.0,4.935936270653029,5.958851298190401
1110.0,5.468548387096774,6.231372934697088
1111.0,5.529228953579858,5.949881982690794
1112.0,7.299645011427073,6.895906859990259
1113.0,8.498632497845716,7.80056948034918
1114.0,7.28245476003147,7.105166535536323
1115.0,7.2195121951219505,7.6768948334644636
1116.0,6.099921321793863,7.764040313214192
1117.0,7.740324453935783,7.4948484507886555
1118.0,11.180941141208647,6.71791989809299
1119.0,7.922895357985837,6.944475665954816
1120.0,7.9252557041699445,6.940373159491964
1121.0,8.728560188827695,8.216365066876476
1122.0,6.680566483084185,7.918961447678992
1123.0,7.61369000786782,6.73249409913454
1124.0,8.130306095687684,7.03592971413585
1125.0,7.731242740998839,8.811906635195385
1126.0,7.007560600951631,7.989502079352591
1127.0,6.825574163575737,7.359031134090142
1128.0,8.307358285564423,8.851820838484883
1129.0,8.258527218912741,8.99055767861826
1130.0,7.711738039039377,9.135139185493237
1131.0,6.560188827694729,6.779701022816679
1132.0,5.277104642014162,5.009913453973249
1133.0,6.739260424862313,4.224390243902439
1134.0,6.785444531864673,4.623918174665618
1135.0,6.008772619984265,4.956333595594021
1136.0,6.856864673485445,4.532848151062156
1137.0,6.181565091085154,4.131333091246545
1138.0,6.2867502874780605,3.6196988036877884
1139.0,6.555068692126127,3.5848494018438943
1140.0,8.177219633238515,3.2660675018660856
1141.0,7.905682987350964,3.039406685630132
1142.0,6.613139260424862,3.1887686860739572
1143.0,6.0727183320220295,3.532966168371361
1144.0,8.448859166011015,3.489063729346971
1145.0,7.4363886703383155,4.482848151062155
1146.0,7.788611329661683,4.582494099134539
1147.0,6.789063729346971,4.598505114083399
1148.0,7.846774193548387,4.895161290322581
1149.0,6.666935483870968,5.179032258064517
1150.0,5.718548387096774,5.095967741935484
1151.0,8.14758064516129,4.576612903225806
1152.0,7.974500768049155,5.139247311827957
1153.0,6.990101096702746,4.76712928232058
1154.0,7.704996784910514,4.016897974493624
1155.0,7.979239147766036,3.6520268786708874
1156.0,6.123962610861774,3.4975024243865844
1157.0,5.935637219409381,4.926170567032002
1158.0,5.563485819189989,4.607395751376869
1159.0,6.1004833089805555,5.002622606871229
1160.0,6.909407665505226,5.1413585103592965
1161.0,5.30529391929864,5.497036454235511
1162.0,5.569697650893559,5.399055861526357
1163.0,5.117657637405867,5.588591660110149
1164.0,5.405756622082349,6.114725937581956
1165.0,7.47510490427485,6.976324416469971
1166.0,7.479202727511146,7.6121688958825064
1167.0,6.587450826121165,6.661998426435877
1168.0,5.282710464201417,5.076475216365067
1169.0,5.513449938469607,4.390429502309911
1170.0,5.536819383082168,4.424168331013334
1171.0,5.582729125058,4.509881175734833
1172.0,5.241364562529,4.433972845931933
1173.0,5.936811313522565,4.856325526034416
1174.0,6.19373946274025,6.237922895357986
1175.0,7.272715522086095,6.116994492525571
1176.0,6.8749587876063085,5.51406279270166
1177.0,7.499664680978606,6.349320932149413
1178.0,6.690607320819751,6.350811134839459
1179.0,6.678281068524971,7.359709265295418
1180.0,7.108219999250683,7.058296804166199
1181.0,7.443894945861901,6.313326589487093
1182.0,7.094825971301187,6.077516765951069
1183.0,6.910276872353977,6.807837847963733
1184.0,6.153367167843958,6.7499416397921514
1185.0,6.180538816022686,7.098652959943283
1186.0,6.011881561920901,7.211225622004536
1187.0,6.949994956525248,6.4438822651253815
1188.0,7.181252395650508,6.764230668361274
1189.0,6.196892210857593,6.470830055074744
1190.0,5.364280094413847,6.892210857592446
1191.0,7.87411487018096,6.67741935483871
1192.0,8.153422501966954,6.482297403619198
1193.0,9.598066764077778,6.088269454123113
1194.0,8.793525907609306,6.594882170019856
1195.0,8.400224794874676,6.79232700161103
1196.0,8.299097073920048,6.462028399085835
1197.0,6.7493125023416125,5.994428833689258
1198.0,7.55967929264546,6.956277396875351
1199.0,7.517054437825484,7.581207148477015
1200.0,6.960140122138548,7.07124873552883
1201.0,6.443587726199842,7.741817466561763
1202.0,7.46675845790716,8.363611329661683
1203.0,8.783556254917388,9.153540519276161
1204.0,8.676986624704957,8.599193548387097
1205.0,7.834775767112509,8.750590086546026
1206.0,6.88052152410925,7.50957251507999
1207.0,8.214454310441722,7.551796485706792
1208.0,6.673260649657188,6.578172417668877
1209.0,8.127975722153536,6.82378329774081
1210.0,8.854703832752612,7.734000224794874
1211.0,8.07051815218613,8.145652092465625
1212.0,6.475384961222884,8.427114008467274
1213.0,7.113729346970889,8.624232887490166
1214.0,5.798200488208356,8.339866650527547
1215.0,7.667983013577034,7.265665032580847
1216.0,9.755864048094574,7.947545340838023
1217.0,8.309078758901732,8.995143638160947
1218.0,9.557106255926083,8.473289757711473
1219.0,8.946026750590086,11.194531864673486
1220.0,7.428560188827695,10.65745476003147
1221.0,5.753737214791503,8.991345397324942
1222.0,7.592918961447678,10.553737214791504
1223.0,6.569472856018882,10.019984264358772
1224.0,9.139260424862313,7.4465774980330455
1225.0,8.03501180173092,6.960896931549961
1226.0,8.257553107789143,6.961644374508261
1227.0,9.013375295043272,6.358064516129032
1228.0,7.91140833988985,7.323564122738
1229.0,8.310542879622345,7.320653029110936
1230.0,7.708457907159716,6.044433516915814
1231.0,7.21334806027961,6.072661340757328
1232.0,7.500930521091812,7.146794871794872
1233.0,7.202481389578164,5.955252274607114
1234.0,6.9044665012406945,5.144561621174525
1235.0,7.518362282878412,6.0944582299421
1236.0,6.695161290322581,5.296774193548387
1237.0,9.440322580645162,4.491129032258064
1238.0,9.21532258064516,5.173387096774194
1239.0,8.89371381306865,5.307712985938792
1240.0,8.218650769634246,5.776604329318728
1241.0,7.58835764288164,5.240721519498074
1242.0,7.09659817627953,5.061893017813553
1243.0,5.751505693362499,6.258807492009694
1244.0,6.557804128732531,6.267947997452325
1245.0,6.450345622119816,8.132718894009217
1246.0,9.50844385748005,7.439805552433405
1247.0,8.454471544715448,7.168558690195196
1248.0,8.484335543816268,6.108435427672249
1249.0,8.806683900940392,5.869540294481285
1250.0,7.132838784609044,5.632992394440073
1251.0,6.476254168071635,5.276448990296354
1252.0,6.164240755310779,5.2634933123524785
1253.0,6.340342250196696,5.220102281667978
1254.0,7.253540519276161,5.5527537372147915
1255.0,6.04148308418568,5.177399685287176
1256.0,5.980636083035768,5.406720934455002
1257.0,7.708059977001755,6.721102402711372
1258.0,7.172057132481994,7.179522483810445
1259.0,7.828042728318102,7.482050777703806
1260.0,9.345472977062277,7.714815711432548
1261.0,9.544944925255704,7.934579071597167
1262.0,9.3301730920535,8.182100708103855
1263.0,7.415676632572777,8.765322580645162
1264.0,8.538886703383163,9.316129032258065
1265.0,8.503245476003148,8.056235247836348
1266.0,10.352871754523996,7.334539732494099
1267.0,9.338985051140835,6.705743509047993
1268.0,7.341483084185681,6.5965381589299765
1269.0,7.68139822412049,7.662477988835189
1270.0,8.839725000936646,6.817863699374321
1271.0,10.896259038627253,6.788554194297703
1272.0,9.319596493199956,7.06774099883856
1273.0,8.224176688771497,5.995878760630925
1274.0,7.827065302911093,7.063069948671837
1275.0,7.126731857180323,6.619654565209247
1276.0,8.516159004908022,8.122966543029484
1277.0,7.526435877261998,7.053265145554681
1278.0,7.035444531864673,6.631274586939417
1279.0,6.983996045915794,6.9691319171256225
1280.0,7.399472452540902,6.752779963283503
1281.0,7.3319942907865805,7.3257998950957255
1282.0,6.966400371199741,7.991528979805926
1283.0,7.390281224152192,7.005913978494624
1284.0,6.357258064516129,7.023387096774194
1285.0,7.543548387096774,7.135483870967741
1286.0,6.569354838709677,6.923387096774194
1287.0,6.223387096774194,7.7104838709677415
1288.0,6.70241935483871,7.577419354838709
1289.0,6.2451612903225815,7.12016129032258
1290.0,6.381156569630212,7.358575924468921
1291.0,7.280094413847364,6.847836349331235
1292.0,8.112627852084973,7.235208497246262
1293.0,6.830507474429583,7.498249409913454
1294.0,7.373721479150276,6.7382376081825335
1295.0,7.219354838709677,6.008064516129032
1296.0,5.917741935483871,7.082258064516129
1297.0,5.515880893300248,6.990942928039702
1298.0,5.84181141439206,6.686600496277915
1299.0,7.697518610421836,8.459429280397021
1300.0,6.7285980148883375,8.091811414392058
1301.0,7.107444168734491,7.605583126550869
1302.0,6.966129032258065,7.9104838709677425
1303.0,7.474193548387096,7.6322580645161295
1304.0,9.751612903225805,7.408064516129032
1305.0,7.137923904052935,8.146401985111662
1306.0,7.4625103391232415,7.299813895781638
1307.0,9.022453045250055,6.7281229195666645
1308.0,7.291350440799693,7.563776251286086
1309.0,7.821147289636668,8.73772014767294
1310.0,7.903048780487804,7.8013178599527935
1311.0,7.9047993705743504,9.221872541306057
1312.0,8.299763965381588,8.459008654602673
1313.0,8.13888576673785,6.7858154434078894
1314.0,6.294226518302049,6.950500168596156
1315.0,8.294634895657712,6.762425536697763
1316.0,6.877451200779289,5.7419523434865685
1317.0,6.4588868907122245,5.418556816904575
1318.0,7.721931549960661,5.067348544453186
1319.0,8.887021842568657,5.133367052564534
1320.0,6.691583305233975,4.886274399610356
1321.0,6.918550260387396,6.136723052714398
1322.0,6.405646097935634,5.578442171518489
1323.0,6.041926117417856,4.8655389457120375
1324.0,6.021309617474055,4.8152485856655804
1325.0,5.185044800465729,4.330163581501111
1326.0,7.3372490871310685,4.2879415562145695
1327.0,7.530452500554782,6.5237518840980675
1328.0,8.1786802235268,6.2913802693503715
1329.0,7.5789246159033725,6.079338180833066
1330.0,6.224270353302611,5.192799070847851
1331.0,6.339702521449177,4.394271477276985
1332.0,5.51354389119928,3.681652991645124
1333.0,5.480454085646847,4.698891011951594
1334.0,6.240995091978569,4.423101419954292
1335.0,6.5131804728185525,4.335862275673447
1336.0,7.189693154996066,3.954720692368214
1337.0,6.640322580645162,3.6556451612903222
1338.0,6.998387096774193,3.6322580645161286
1339.0,5.9927419354838705,3.735483870967742
1340.0,5.442741935483871,3.7475806451612903
1341.0,4.840322580645161,4.358064516129032
1342.0,6.219354838709677,3.6088709677419355
1343.0,7.095161290322581,3.5774193548387094
1344.0,6.734946236559139,3.2617659222497934
1345.0,6.990860215053763,3.828060380479735
1346.0,6.044623655913979,4.105562448304384
1347.0,5.623118279569892,4.625765095119934
1348.0,8.938325652841781,4.393873330970106
1349.0,8.672283728597655,9.941252669439137
1350.0,7.405309842268929,10.162060245026414
1351.0,8.708357686111423,8.401767449702147
1352.0,9.077910156981755,8.109587501404967
1353.0,9.68101607283354,6.921096998988423
1354.0,8.552358472893484,5.588775242591135
1355.0,9.237233524408976,8.244426960398638
1356.0,7.417931137836724,8.057135363980368
1357.0,6.7783522535686185,7.320145367352291
1358.0,6.1127009104192425,6.510348057397625
1359.0,7.908613390281368,6.365951069648945
1360.0,7.824487655014799,7.740804016335093
1361.0,7.1283163728482375,7.542303801627169
1362.0,8.083528011458775,6.6101051060138385
1363.0,7.466034359031998,7.280705394788794
1364.0,7.474401915944009,7.863405411792508
1365.0,8.075831957185223,8.390239291262109
1366.0,10.992589262298154,7.779652317260499
1367.0,10.100307219662058,8.404224270353303
1368.0,8.308064516129033,7.739516129032258
1369.0,6.845161290322581,6.676612903225806
1370.0,6.650806451612903,7.942741935483871
1371.0,6.511290322580645,8.849193548387097
1372.0,7.081451612903226,8.758064516129032
1373.0,7.190322580645161,8.406451612903226
1374.0,8.604032258064516,10.188709677419354
1375.0,7.487096774193549,8.42983870967742
1376.0,32.72096774193548,8.200806451612902
1377.0,31.204032258064515,7.295471464019851
1378.0,51.9491935483871,6.757009925558313
1379.0,62.137903225806454,7.0724565756823825
1380.0,52.03709677419354,7.608002481389578
1381.0,31.80676632572777,8.030191248562609
1382.0,18.960424862313136,7.548957513768686
1383.0,13.76634539732494,8.079248623131393
1384.0,10.419059795436663,8.111801730920535
1385.0,9.737529504327302,7.223446105428796
1386.0,8.969158143194335,7.953029110936271
1387.0,8.322816679779702,8.1595987411487
1388.0,7.8013806151886405,8.255476565134314
1389.0,8.166396912817055,8.924493274886665
1390.0,8.578871155070997,7.770665205499981
1391.0,10.23770746693642,7.358316473717732
1392.0,7.664231388857668,7.938275073994979
1393.0,6.333415469922158,8.241292801088237
1394.0,7.080455814838191,8.237620286872843
1395.0,7.769481213777044,9.529866304689278
1396.0,11.720454892602808,9.61977186202206
1397.0,11.183280160699516,8.233882783882784
1398.0,9.96136712749616,7.514708141321044
1399.0,9.976651305683564,7.88195084485407
1400.0,8.888006617038876,7.8446443341604635
1401.0,7.238358147229114,6.9154673283705534
1402.0,8.082800238052009,6.5439256390082505
1403.0,9.270029151284069,7.096962819504125
1404.0,7.223321027254938,6.512191087171417
1405.0,7.31243115656963,6.414319433516916
1406.0,7.754602675059009,6.566837136113296
1407.0,8.984146341463415,5.6738198269079465
1408.0,6.967918961447679,6.503068450039339
1409.0,6.120653029110937,7.735405192761604
1410.0,6.050413060582219,8.474704956726987
1411.0,6.274803304484658,8.000255704169945
1412.0,5.750554494024204,7.817850586339965
1413.0,7.047582518451913,7.818838747143232
1414.0,7.983163800532014,9.015684125735266
1415.0,9.269699524184182,8.212749615975422
1416.0,7.548559439511445,9.120890937019968
1417.0,7.5386067905344065,7.2046319272125725
1418.0,7.262143678508745,7.966753414432407
1419.0,7.037444773951462,6.941913292582058
1420.0,11.04106699751861,7.324772539288668
1421.0,9.064888337468982,6.9857733664185275
1422.0,7.612096774193549,9.161290322580644
1423.0,8.376612903225807,9.408064516129032
1424.0,8.87741935483871,7.961290322580645
1425.0,9.174400330851944,8.753060380479734
1426.0,8.305748552522745,8.732175351530191
1427.0,8.98190653432589,8.199152191894127
1428.0,7.673614557485526,7.350785773366418
1429.0,6.70616211745244,7.325392886683209
1430.0,6.281451612903226,6.903225806451613
1431.0,5.9887096774193544,7.608870967741934
1432.0,5.685326514555468,6.524036191974822
1433.0,5.925727773406766,6.716856805664831
1434.0,6.300767112509835,6.776573564122738
1435.0,6.377380015735641,6.177596380802518
1436.0,7.199173878835563,5.883556254917387
1437.0,7.488650668764752,6.100708103855232
1438.0,6.917741935483871,6.023249409913454
1439.0,11.5605222734255,6.342001049042748
1440.0,13.305044771645873,6.831897456071335
1441.0,13.135663706867483,5.806751339402794
1442.0,12.045408564684726,5.092990146491326
1443.0,11.573264396238432,4.059945299913829
1444.0,10.33501929489341,4.539957288973811
1445.0,8.025888876400284,4.670450713723727
1446.0,8.193435989659434,6.2963620696114795
1447.0,8.665130568356375,6.689487093027612
1448.0,7.063860477314449,6.529684163201079
1449.0,6.994679854632647,6.383044846577498
1450.0,6.560282492225843,6.146675845790716
1451.0,7.468697313701248,7.371091379116556
1452.0,7.4507886553519915,6.9841294818478135
1453.0,7.7389756846877225,6.770379528680079
1454.0,7.608669589000037,6.961035555056011
1455.0,7.8849799557903415,6.469896219699524
1456.0,6.990109025514219,5.579034131355138
1457.0,6.131167809373946,5.188022179760968
1458.0,5.832677681615525,5.056460979356337
1459.0,6.345921846315237,5.812258813832377
1460.0,6.332677681615525,5.132329249559776
1461.0,7.763650668764751,4.720849724626278
1462.0,8.491188040912666,4.87537372147915
1463.0,7.806726986624704,5.092918961447679
1464.0,6.813670338316285,7.563768686073958
1465.0,6.2975609756097555,7.425432730133753
1466.0,6.904445318646735,7.948229740361921
1467.0,8.260326514555466,8.460818253343824
1468.0,8.08363867970477,7.671806976134277
1469.0,7.044179686036491,8.094361395226855
1470.0,6.462373084560339,6.3606346708628365
1471.0,5.702468997040201,5.097705218987674
1472.0,5.302217976096811,5.716889588250721
1473.0,5.977145854407853,6.471732044509385
1474.0,7.071185043647672,6.534449814544228
1475.0,6.046607470683002,6.250309092952681
1476.0,5.548087370274624,6.044509385186018
1477.0,5.182934322430782,5.718792851522985
1478.0,5.19008654602675,5.776868607395752
1479.0,7.185129819040126,6.079228953579859
1480.0,8.440165224232889,7.666601101494886
1481.0,8.977360346184106,8.372324940991344
1482.0,6.926986624704957,7.634146341463414
1483.0,6.114398111723053,8.470653029110936
1484.0,5.554838709677419,9.138709677419353
1485.0,7.604032258064516,8.976612903225806
1486.0,7.276612903225806,8.653225806451612
1487.0,5.688709677419355,8.525806451612903
1488.0,4.87632340777502,8.944954507857734
1489.0,5.5296939619520264,7.82570306038048
1490.0,7.228556658395368,7.422125723738627
1491.0,7.062262200165426,7.124772539288668
1492.0,8.032340777502068,8.601902398676593
1493.0,7.937096774193548,8.588709677419356
1494.0,7.066837136113296,10.0257474429583
1495.0,6.108182533438237,8.234716758457907
1496.0,6.46968266456858,7.828283878460904
1497.0,6.903513788859973,8.529950458668004
1498.0,7.556900482156186,11.037359178979951
1499.0,6.989307833524986,8.697279117420738
1500.0,7.009996166959189,8.247538063824452
1501.0,8.259299158748412,8.262401904416066
1502.0,7.094728560188828,8.438237608182533
1503.0,7.673249409913454,9.474114870180959
1504.0,7.2201809598741145,8.30786782061369
1505.0,8.916935483870967,7.628835562549174
1506.0,7.302517702596381,7.193548387096774
1507.0,7.283910306845003,6.992997639653815
1508.0,6.876632572777341,7.325531077891424
1509.0,7.445476003147128,8.038217938631
1510.0,8.340479937057435,8.39693154996066
1511.0,9.608457402812242,8.310380479735318
1512.0,10.89414805624483,7.760835401157982
1513.0,17.135380479735318,9.729611248966087
1514.0,14.684222497932176,7.950289495450785
1515.0,13.990311485000706,7.183366620266699
1516.0,17.4029307631786,11.562981904012588
1517.0,39.217191188040914,10.000845790715973
1518.0,33.79236821400472,28.7067269866247
1519.0,26.72147915027537,20.685287175452398
1520.0,34.838630999213215,25.373485444531866
1521.0,26.190165224232885,25.5507474429583
1522.0,28.210936270653026,22.912116443745084
