time,Engagement,Excitement,Stress,Relaxation,Interest,Focus
7.0,0.853525,0.118451,0.341498,0.429889,0.710557,0.374809
8.0,0.8514972666666667,0.12259039999999999,0.3416784666666667,0.4464568666666666,0.7197363333333333,0.37067646666666665
9.0,0.8491798571428572,0.12732114285714285,0.3418847142857143,0.4653915714285714,0.730227,0.36595357142857143
10.0,0.8466307066666666,0.13252495999999997,0.3421115866666667,0.4862197466666667,0.7417667333333333,0.3607583866666666
11.0,0.8439096193548385,0.13807976774193548,0.3423537612903226,0.5084527548387097,0.7540848064516128,0.3552127935483871
12.0,0.8408680193548387,0.14428886774193547,0.3426244612903226,0.5333045548387096,0.7678538064516128,0.3490139935483871
13.0,0.8378264193548386,0.15049796774193547,0.3428951612903226,0.5581563548387096,0.7816228064516129,0.3428151935483871
14.0,0.8347848193548386,0.1567070677419355,0.3431658612903226,0.5830081548387097,0.7953918064516128,0.3366163935483871
15.0,0.8317432193548386,0.16291616774193546,0.34343656129032263,0.6078599548387097,0.8091608064516129,0.33041759354838707
16.0,0.8287016193548387,0.16912526774193548,0.3437072612903226,0.6327117548387097,0.8229298064516128,0.3242187935483871
17.0,0.8256600193548387,0.1753343677419355,0.34397796129032265,0.6575635548387097,0.8366988064516129,0.31801999354838717
18.0,0.8223547806451612,0.18438382903225808,0.3473181838709678,0.6625496,0.8497875483870967,0.3141391290322581
19.0,0.8189177225806451,0.19485347096774192,0.3521931677419355,0.6576027677419354,0.8625361612903226,0.3114172322580645
20.0,0.8154147548387096,0.20603320322580645,0.3578355322580645,0.6476894967741935,0.8751147096774192,0.3092748193548387
21.0,0.8118788322580646,0.21756798064516128,0.36386158709677424,0.6352930064516129,0.8876082258064516,0.3074221483870968
22.0,0.8083264322580646,0.2292802806451613,0.3700794870967742,0.6216549064516128,0.9000592258064515,0.30571434838709677
23.0,0.8047740322580645,0.2409925806451613,0.3762973870967742,0.6080168064516129,0.9125102258064515,0.30400654838709673
24.0,0.8012216322580645,0.2527048806451613,0.38251528709677424,0.5943787064516128,0.9249612258064516,0.3022987483870968
25.0,0.7976692322580645,0.2644171806451613,0.3887331870967742,0.580740606451613,0.9374122258064517,0.30059094838709677
26.0,0.7941168322580646,0.2761294806451613,0.3949510870967742,0.5671025064516129,0.9498632258064517,0.29888314838709673
27.0,0.7905644322580646,0.2878417806451613,0.4011689870967742,0.5534644064516129,0.9623142258064517,0.29717534838709675
28.0,0.7827681096774195,0.29539294516129033,0.4027228870967742,0.5419738161290322,0.9580230838709678,0.29744081290322577
29.0,0.7728498258064518,0.30086354193548387,0.40194478709677417,0.5315569806451612,0.9453608709677419,0.29869290967741935
30.0,0.7618705612903227,0.30529385483870963,0.40000068709677417,0.5216770225806451,0.9285131225806451,0.3004383225806452
31.0,0.750360806451613,0.30920402580645157,0.39747358709677416,0.5120655032258065,0.9095726064516129,0.3024303935483871
32.0,0.738585806451613,0.31285412580645156,0.39465498709677416,0.5025882032258064,0.8895857064516128,0.30454579354838707
33.0,0.726810806451613,0.3165042258064516,0.3918363870967742,0.4931109032258064,0.8695988064516129,0.30666119354838706
34.0,0.7150358064516129,0.3201543258064516,0.3890177870967742,0.4836336032258064,0.849611906451613,0.30877659354838705
35.0,0.7032608064516129,0.32380442580645163,0.38619918709677414,0.4741563032258064,0.829625006451613,0.31089199354838704
36.0,0.691485806451613,0.3274545258064516,0.38338058709677414,0.46467900322580635,0.8096381064516129,0.3130073935483871
37.0,0.679710806451613,0.3311046258064516,0.38056198709677413,0.45520170322580644,0.789651206451613,0.3151227935483871
38.0,0.6737580516129034,0.3286369967741935,0.3811532967741935,0.45398014516129026,0.7755586032258064,0.31529052903225807
39.0,0.6707164193548387,0.3231105032258065,0.3834495612903226,0.4568864580645161,0.7644131483870968,0.3144844322580645
40.0,0.6691303483870968,0.31605457741935483,0.3865983032258064,0.46185670645161286,0.7547412677419355,0.3131914193548387
41.0,0.6682720580645162,0.30823393548387096,0.3901732838709677,0.4678589225806451,0.7458061741935484,0.31165494838709673
42.0,0.6677776580645162,0.30003093548387094,0.3939613838709677,0.4743771225806452,0.7372394741935484,0.3099967483870968
43.0,0.6672832580645162,0.291827935483871,0.3977494838709677,0.4808953225806452,0.7286727741935484,0.30833854838709673
44.0,0.6667888580645162,0.28362493548387097,0.4015375838709677,0.4874135225806452,0.7201060741935483,0.30668034838709674
45.0,0.6662944580645161,0.27542193548387095,0.4053256838709677,0.4939317225806452,0.7115393741935483,0.30502214838709674
46.0,0.6658000580645161,0.267218935483871,0.4091137838709677,0.5004499225806452,0.7029726741935484,0.3033639483870968
47.0,0.6653056580645161,0.259015935483871,0.4129018838709677,0.5069681225806453,0.6944059741935483,0.30170574838709674
48.0,0.6633387935483871,0.2485073870967742,0.4136195838709677,0.5068854967741936,0.6917607709677418,0.30198303225806444
49.0,0.6606356967741935,0.23684606451612905,0.41280208387096773,0.5035024580645162,0.6920763161290322,0.30322805806451614
50.0,0.6575644838709678,0.22460835483870967,0.4112169838709677,0.4984692129032259,0.6938722354838709,0.30495695483870966
51.0,0.6543092129032257,0.21208245161290323,0.4092480838709677,0.49261086451612907,0.6964083419354838,0.3069277870967742
52.0,0.6509619129032258,0.19941245161290325,0.4070872838709677,0.48633996451612904,0.6993145419354838,0.30901958709677413
53.0,0.6476146129032259,0.1867424516129032,0.40492648387096775,0.4800690645161291,0.7022207419354838,0.3111113870967742
54.0,0.6442673129032258,0.1740724516129032,0.40276568387096773,0.473798164516129,0.7051269419354838,0.3132031870967742
55.0,0.6409200129032259,0.1614024516129032,0.4006048838709677,0.467527264516129,0.7080331419354838,0.31529498709677417
56.0,0.6375727129032258,0.14873245161290322,0.39844408387096775,0.46125636451612906,0.7109393419354839,0.31738678709677415
57.0,0.6342254129032259,0.1360624516129032,0.3962832838709678,0.45498546451612903,0.7138455419354839,0.3194785870967742
58.0,0.6384642806451614,0.13099286451612902,0.39474240645161296,0.4561149774193548,0.7255376,0.32118468387096777
59.0,0.6464962322580645,0.12972348387096772,0.3935114903225806,0.4609446967741936,0.7416225870967741,0.322697929032258
60.0,0.6564247258064515,0.1303542064516129,0.3924355548387096,0.46762451935483873,0.7599040387096774,0.32411474838709675
61.0,0.6673014903225807,0.1319349806451613,0.3914371096774193,0.4752293935483871,0.7792837225806452,0.32548335483870966
62.0,0.6786523903225806,0.1339907806451613,0.39047740967741934,0.48329679354838717,0.7992125225806451,0.3268278548387097
63.0,0.6900032903225807,0.13604658064516129,0.3895177096774194,0.4913641935483871,0.8191413225806451,0.3281723548387097
64.0,0.7013541903225806,0.13810238064516128,0.3885580096774194,0.4994315935483871,0.8390701225806451,0.3295168548387097
65.0,0.7127050903225807,0.14015818064516128,0.3875983096774194,0.5074989935483871,0.8589989225806451,0.3308613548387097
66.0,0.7240559903225807,0.1422139806451613,0.38663860967741936,0.5155663935483871,0.8789277225806451,0.3322058548387097
67.0,0.7354068903225807,0.14426978064516127,0.38567890967741936,0.5236337935483871,0.8988565225806451,0.3335503548387097
68.0,0.7416005258064517,0.1476079548387097,0.3862055580645161,0.5274055548387097,0.9095674645161289,0.33188948709677424
69.0,0.7452155290322581,0.15158731612903226,0.3874753806451613,0.5290294967741935,0.9156694774193548,0.32872593548387097
70.0,0.7475412161290322,0.15588727096774194,0.3891167903225806,0.529579529032258,0.9194670258064515,0.3248110419354838
71.0,0.7492222451612903,0.16034752258064516,0.3909439935483871,0.529592606451613,0.9221123419354837,0.32052047741935485
72.0,0.7505809451612903,0.16488792258064516,0.3928640935483871,0.5293372064516129,0.9241815419354837,0.31604207741935486
73.0,0.7519396451612903,0.16942832258064516,0.3947841935483871,0.529081806451613,0.9262507419354837,0.31156367741935487
74.0,0.7532983451612902,0.17396872258064516,0.3967042935483871,0.5288264064516128,0.9283199419354837,0.3070852774193549
75.0,0.7546570451612904,0.17850912258064516,0.3986243935483871,0.5285710064516129,0.9303891419354837,0.3026068774193548
76.0,0.7560157451612903,0.18304952258064516,0.4005444935483871,0.5283156064516129,0.9324583419354838,0.2981284774193548
77.0,0.7573744451612903,0.18758992258064516,0.40246459354838715,0.5280602064516129,0.9345275419354838,0.2936500774193548
78.0,0.7556890741935485,0.1886733741935484,0.40460812580645167,0.529453206451613,0.9347665096774193,0.29177733548387097
79.0,0.7524816677419355,0.1880283516129032,0.4068633741935484,0.5316704064516129,0.9340903612903224,0.29120742258064514
80.0,0.7485132435483872,0.18651909193548388,0.40917448064516126,0.5342997064516128,0.9329566548387096,0.29128892419354835
81.0,0.744164310483871,0.18457771370967743,0.41151351612903225,0.5371350564516129,0.9315941693548386,0.29169613306451614
82.0,0.739625122983871,0.18242027620967743,0.41386651612903225,0.5400734314516129,0.9301172943548386,0.2922661955645161
83.0,0.735085935483871,0.1802628387096774,0.41621951612903224,0.543011806451613,0.9286404193548387,0.29283625806451613
84.0,0.730546747983871,0.1781054012096774,0.41857251612903223,0.5459501814516129,0.9271635443548387,0.2934063205645161
85.0,0.7260075604838709,0.1759479637096774,0.4209255161290323,0.5488885564516128,0.9256866693548387,0.2939763830645161
86.0,0.7214683729838709,0.17379052620967742,0.4232785161290322,0.5518269314516129,0.9242097943548387,0.29454644556451615
87.0,0.7169291854838711,0.17163308870967742,0.4256315161290323,0.5547653064516129,0.9227329193548386,0.29511650806451617
88.0,0.7123899979838709,0.16947565120967742,0.42798451612903227,0.557703681451613,0.9212560443548387,0.29568657056451614
89.0,0.707850810483871,0.16731821370967742,0.43033751612903226,0.5606420564516129,0.9197791693548387,0.29625663306451616
90.0,0.703311622983871,0.1651607762096774,0.4326905161290322,0.5635804314516129,0.9183022943548387,0.29682669556451613
91.0,0.6987724354838709,0.1630033387096774,0.43504351612903225,0.5665188064516129,0.9168254193548387,0.29739675806451615
92.0,0.694233247983871,0.1608459012096774,0.43739651612903224,0.569457181451613,0.9153485443548387,0.2979668205645162
93.0,0.689694060483871,0.1586884637096774,0.43974951612903224,0.572395556451613,0.9138716693548388,0.29853688306451615
94.0,0.6900998471774193,0.15856340685483872,0.43992987096774194,0.5722024346774194,0.9117360459677419,0.2968947326612903
95.0,0.6929781209677419,0.15945454032258063,0.4390239032258064,0.570443564516129,0.9092710483870967,0.29414647580645165
96.0,0.6970926383064515,0.1608537689516129,0.43757477419354834,0.5679018201612903,0.9066413637096774,0.2908451657258065
97.0,0.7018252774193547,0.1625070451612903,0.435854064516129,0.5649686387096775,0.9039293354838709,0.2872673290322581
98.0,0.7068669774193548,0.16428734516129032,0.43399756451612903,0.5618397387096775,0.901176135483871,0.28355122903225805
99.0,0.7119086774193548,0.1660676451612903,0.432141064516129,0.5587108387096774,0.8984229354838711,0.27983512903225805
100.0,0.7169503774193549,0.1678479451612903,0.43028456451612895,0.5555819387096774,0.895669735483871,0.27611902903225805
101.0,0.7219920774193548,0.16962824516129033,0.428428064516129,0.5524530387096774,0.8929165354838711,0.27240292903225805
102.0,0.7270337774193547,0.1714085451612903,0.426571564516129,0.5493241387096774,0.8901633354838709,0.26868682903225805
103.0,0.7320754774193547,0.17318884516129032,0.424715064516129,0.5461952387096775,0.8874101354838709,0.26497072903225805
104.0,0.7372283,0.17328200272952854,0.42201145781637717,0.5440883019851117,0.8868465374689827,0.2711825019851116
105.0,0.7424366838709677,0.17253158908188587,0.4188842977667494,0.5424923468982631,0.8873777404466501,0.28235821141439205
106.0,0.7476728483870967,0.17135938982630272,0.4155453610421836,0.541151882630273,0.8884563439205956,0.2960158890818858
107.0,0.7529229032258065,0.16997629776674938,0.41210053598014884,0.5399391637717121,0.8898086476426799,0.3109145508684863
108.0,0.7581799032258064,0.16848775930521093,0.40860276674937956,0.538790317617866,0.8912978014888338,0.32643370471464017
109.0,0.7634369032258064,0.16699922084367247,0.4051049975186104,0.5376414714640199,0.8927869553349876,0.34195285856079405
110.0,0.7686939032258063,0.16551068238213398,0.4016072282878411,0.5364926253101737,0.8942761091811414,0.35747201240694787
111.0,0.7739509032258064,0.16402214392059553,0.39810945905707196,0.5353437791563276,0.8957652630272953,0.3729911662531017
112.0,0.7792079032258064,0.16253360545905707,0.3946116898263027,0.5341949330024813,0.8972544168734492,0.38851032009925557
113.0,0.7844649032258064,0.16104506699751858,0.3911139205955335,0.5330460868486352,0.898743570719603,0.40402947394540945
114.0,0.7897219032258063,0.15955652853598012,0.38761615136476424,0.531897240694789,0.9002327245657569,0.4195486277915632
115.0,0.7949789032258063,0.15806799007444167,0.38411838213399496,0.5307483945409428,0.9017218784119108,0.4350677816377171
116.0,0.8002359032258064,0.1565794516129032,0.3806206129032258,0.5295995483870968,0.9032110322580645,0.4505869354838709
117.0,0.7921199483870967,0.15434543622828784,0.3772864923076923,0.5244697196029776,0.8940885970223326,0.4489606679900744
118.0,0.7773175161290322,0.151738682382134,0.3740341960297766,0.5173493995037222,0.8796603672456575,0.4387616898263027
119.0,0.7591718451612903,0.14894555930521092,0.37082281191066996,0.5092338337468982,0.8625792401985111,0.42427635632754346
120.0,0.7393545548387097,0.14605925161290323,0.36763188387096774,0.5006206451612902,0.844171664516129,0.40764784516129027
121.0,0.7187014548387096,0.1431263516129032,0.36445118387096775,0.4917586451612903,0.8251008645161291,0.38994774516129027
122.0,0.6980483548387096,0.14019345161290322,0.3612704838709677,0.48289664516129027,0.8060300645161291,0.3722476451612903
123.0,0.6773952548387097,0.13726055161290324,0.35808978387096774,0.4740346451612903,0.786959264516129,0.35454754516129033
124.0,0.6567421548387096,0.13432765161290322,0.35490908387096776,0.4651726451612903,0.767888464516129,0.33684744516129034
125.0,0.6360890548387097,0.1313947516129032,0.3517283838709677,0.4563106451612903,0.7488176645161291,0.31914734516129034
126.0,0.6154359548387096,0.12846185161290324,0.3485476838709678,0.4474486451612903,0.7297468645161291,0.30144724516129034
127.0,0.6132498483870968,0.1267154806451613,0.3508952419354839,0.44713085161290317,0.7308808645161291,0.2955387322580645
128.0,0.6202972387096775,0.12556237419354838,0.35600692903225806,0.4510851612903225,0.7421172645161291,0.2955260129032258
129.0,0.6319613774193549,0.12470590000000001,0.3625006806451613,0.45717552258064514,0.7584048645161291,0.29846119032258067
130.0,0.6459338903225806,0.12399774193548388,0.369685464516129,0.4643339096774193,0.7772180645161291,0.30287031612903226
131.0,0.6610605903225807,0.12336374193548387,0.37721576451612904,0.4720263096774193,0.797294064516129,0.3080164161290323
132.0,0.6761872903225807,0.12272974193548386,0.384746064516129,0.4797187096774193,0.817370064516129,0.31316251612903223
133.0,0.6913139903225807,0.12209574193548386,0.392276364516129,0.4874111096774193,0.837446064516129,0.3183086161290323
134.0,0.7064406903225807,0.12146174193548387,0.399806664516129,0.4951035096774193,0.857522064516129,0.32345471612903226
135.0,0.7215673903225807,0.12082774193548386,0.407336964516129,0.5027959096774193,0.8775980645161291,0.32860081612903225
136.0,0.7366940903225807,0.12019374193548385,0.414867264516129,0.5104883096774193,0.8976740645161291,0.3337469161290323
137.0,0.7471616935483871,0.12301827096774191,0.415570364516129,0.5172572,0.9094861161290323,0.33311665483870967
138.0,0.7552997483870969,0.127572064516129,0.412859864516129,0.5235643354838709,0.9171661935483871,0.3295982129032258
139.0,0.7622730290322581,0.13299049032258065,0.40844256451612904,0.5296405935483871,0.9227802838709678,0.32463568064516124
140.0,0.7686639225806451,0.1388412322580645,0.4031718645161291,0.5356014129032258,0.9273613806451613,0.31895110322580644
141.0,0.7747636225806451,0.14490813225806448,0.397474464516129,0.5415045129032259,0.9314259806451612,0.31290550322580646
142.0,0.7808633225806452,0.15097503225806452,0.391777064516129,0.5474076129032258,0.9354905806451613,0.3068599032258064
143.0,0.7869630225806451,0.1570419322580645,0.38607966451612896,0.5533107129032258,0.9395551806451613,0.30081430322580643
144.0,0.793062722580645,0.1631088322580645,0.380382264516129,0.5592138129032258,0.9436197806451613,0.29476870322580645
145.0,0.7991624225806451,0.16917573225806448,0.37468486451612903,0.5651169129032257,0.9476843806451613,0.2887231032258064
146.0,0.8052621225806451,0.17524263225806452,0.368987464516129,0.5710200129032257,0.9517489806451612,0.2826775032258064
147.0,0.8112179258064516,0.19984403548387095,0.36929403870967736,0.5781298741935483,0.9541473096774192,0.2837257354838709
148.0,0.8171017806451613,0.23371269032258066,0.3726026,0.5858431161290323,0.9557125032258064,0.28832088387096777
149.0,0.8229496612903225,0.27221497096774194,0.37741215483870966,0.5938580483870968,0.956861129032258,0.2946894903225806
150.0,0.8287795548387096,0.31303406451612903,0.3829722064516129,0.6020238258064516,0.9578014709677418,0.3019448258064516
151.0,0.8346004548387097,0.35501156451612903,0.38890750645161287,0.6102650258064516,0.9586376709677418,0.3096435258064516
152.0,0.8404213548387096,0.39698906451612903,0.3948428064516129,0.6185062258064515,0.9594738709677418,0.31734222580645155
153.0,0.8462422548387097,0.43896656451612903,0.4007781064516129,0.6267474258064516,0.9603100709677419,0.3250409258064516
154.0,0.8520631548387096,0.48094406451612903,0.40671340645161286,0.6349886258064515,0.961146270967742,0.3327396258064516
155.0,0.8578840548387097,0.522921564516129,0.4126487064516129,0.6432298258064515,0.9619824709677419,0.3404383258064516
156.0,0.8637049548387097,0.564899064516129,0.41858400645161287,0.6514710258064516,0.962818670967742,0.3481370258064516
157.0,0.8639026806451613,0.5784971580645162,0.42174057096774187,0.6510152451612903,0.9612826387096775,0.348126564516129
158.0,0.8612888193548387,0.5779055483870967,0.42350776774193544,0.6462109741935483,0.9585604903225806,0.34426152258064513
159.0,0.857269164516129,0.5702190870967742,0.4245802806451613,0.6392324580645161,0.9552452838709677,0.33846919032258066
160.0,0.8525466129032259,0.5589852,0.42530545161290323,0.6311668193548388,0.9516335483870968,0.3317132129032258
161.0,0.8474726129032258,0.5459776000000001,0.42585695161290327,0.6225576193548388,0.9478735483870968,0.3244754129032258
162.0,0.8423986129032259,0.5329699999999999,0.4264084516129032,0.6139484193548387,0.9441135483870968,0.31723761290322583
163.0,0.8373246129032258,0.5199623999999999,0.42695995161290323,0.6053392193548386,0.9403535483870968,0.30999981290322576
164.0,0.8322506129032259,0.5069547999999999,0.42751145161290327,0.5967300193548386,0.9365935483870969,0.3027620129032258
165.0,0.8271766129032259,0.4939472,0.42806295161290325,0.5881208193548386,0.9328335483870969,0.29552421290322584
166.0,0.8221026129032258,0.4809396,0.42861445161290324,0.5795116193548386,0.9290735483870968,0.28828641290322576
167.0,0.8246876580645162,0.45958190967741935,0.4239392161290323,0.5789154258064516,0.9250504258064517,0.2943020322580645
168.0,0.8311022258064515,0.4340491741935484,0.4166506129032258,0.5823257354838709,0.920895741935484,0.30694436129032254
169.0,0.8394315548387097,0.4064289161290322,0.40805532580645165,0.5877392967741935,0.9166752774193548,0.3229000451612903
170.0,0.848718264516129,0.37776489677419356,0.39880669677419356,0.5941544838709677,0.9124219225806451,0.34051240645161285
171.0,0.8584836645161289,0.3485789967741936,0.38923139677419355,0.6010704838709677,0.9081521225806451,0.3589531064516128
172.0,0.8682490645161289,0.3193930967741936,0.37965609677419354,0.6079864838709677,0.9038823225806452,0.37739380645161286
